0.000998, 0.001413, 0.002171, 0.002943, 0.003568, 0.004092, 0.004723, 0.005709, 0.007176, 0.009101, 0.011398, 0.013887, 0.016200, 0.018015, 0.019514, 0.021200, 0.023200, 0.025067, 0.026211, 0.026216, 0.027503, 0.029671, 0.031848, 0.033457, 0.034749, 0.036187, 0.037597, 0.038416, 0.038487, 0.038724, 0.038743, 0.039076, 0.039574, 0.040079, 0.040542, 0.040942, 0.041419, 0.042318, 0.043768, 0.045326, 0.046331, 0.046586, 0.046708, 0.046805, 0.046834, 0.046952, 0.047062, 0.047349, 0.048721, 0.051681, 0.056025, 0.060876, 0.065388, 0.069270, 0.072299, 0.073794, 0.074447, 0.076990, 0.080359, 0.083445, 0.085649, 0.086824, 0.087042, 0.087282, 0.086997, 0.089691, 0.095158, 0.101889, 0.107394, 0.110087, 0.110788, 0.111250, 0.111828, 0.111434, 0.109734, 0.108702, 0.107850, 0.107144, 0.106738, 0.106358, 0.105449, 0.103976, 0.102730, 0.102680, 0.104141, 0.103953, 0.101856, 0.101032, 0.101412, 0.101926, 0.101661, 0.100816, 0.100314, 0.100688, 0.101100, 0.101616, 0.101309, 0.101379, 0.101726, 0.101833, 0.101755, 0.102681, 0.103577, 0.103164, 0.101768, 0.101574, 0.102337, 0.103779, 0.106183, 0.109221, 0.111957, 0.114206, 0.116028, 0.116605, 0.115046, 0.111015, 0.107187, 0.104835, 0.103830, 0.103966, 0.105420, 0.106871, 0.105141, 0.102180, 0.100212, 0.099263, 0.099165, 0.099844, 0.100615, 0.101584, 0.100697, 0.096745, 0.090443, 0.084272, 0.081919, 0.082604, 0.083997, 0.084787, 0.085216, 0.085225, 0.085016, 0.085239, 0.085176, 0.083792, 0.084461, 0.085880, 0.086327, 0.086180, 0.085755, 0.084630, 0.084762, 0.085720, 0.084555, 0.082762, 0.081033, 0.080013, 0.080010, 0.081243, 0.082688, 0.083371, 0.083241, 0.083464, 0.083392, 0.083144, 0.083368, 0.084107, 0.083960, 0.083434, 0.083533, 0.084327, 0.084277, 0.083725, 0.082223, 0.080457, 0.078555, 0.076829, 0.075415, 0.074296, 0.073492, 0.073111, 0.073371, 0.072542, 0.070562, 0.068063, 0.065324, 0.062540, 0.060725, 0.060565, 0.060892, 0.060299, 0.059157, 0.058378, 0.057949, 0.057392, 0.056536, 0.055769, 0.055746, 0.056874, 0.059054, 0.059981, 0.059353, 0.057382, 0.055433, 0.055137, 0.056373, 0.056539, 0.055613, 0.054956, 0.055673, 0.053913, 0.052810, 0.053736, 0.055244, 0.056123, 0.056580, 0.055706, 0.056489, 0.059371, 0.062997, 0.066970, 0.070402, 0.072124, 0.071185, 0.069874, 0.069443, 0.069686, 0.069652, 0.069405, 0.069476, 0.069658, 0.069680, 0.069396, 0.068833, 0.068081, 0.067202, 0.066655, 0.066654, 0.067181, 0.066986, 0.066182, 0.065234, 0.064439, 0.063694, 0.062864, 0.062127, 0.061763, 0.061730, 0.061696, 0.061492, 0.061345, 0.061646, 0.061969, 0.062000, 0.062009, 0.062228, 0.062752, 0.063023, 0.063173, 0.063369, 0.063255, 0.062338, 0.060583, 0.058399, 0.056121, 0.054703, 0.054452, 0.055115, 0.055443, 0.054278, 0.053338, 0.052898, 0.052626, 0.052179, 0.051966, 0.052979, 0.053495, 0.053291, 0.052428, 0.051072, 0.051030, 0.052225, 0.052279, 0.050576, 0.047094, 0.043478, 0.040450, 0.038541, 0.038242, 0.037963, 0.037220, 0.036607, 0.036562, 0.036609, 0.036364, 0.035856, 0.035164, 0.034557, 0.034317, 0.034448, 0.034798, 0.034903, 0.034747, 0.034494, 0.034201, 0.033908, 0.033748, 0.033603, 0.033364, 0.033055, 0.032786, 0.032623, 0.032527, 0.032447, 0.032297, 0.032075, 0.031676, 0.031103, 0.030499, 0.029853, 0.029536, 0.029608, 0.029815, 0.029802, 0.029509, 0.029169, 0.028984, 0.028930, 0.028887, 0.028961, 0.028609, 0.027778, 0.026792, 0.026090, 0.026162, 0.025682, 0.025006, 0.024418, 0.024173, 0.024060, 0.023383, 0.022034, 0.020852, 0.020755, 0.021791, 0.021853, 0.020371, 0.019022, 0.018390, 0.018801, 0.019101, 0.019223, 0.019422, 0.019577, 0.019654, 0.019815, 0.020137, 0.020456, 0.020753, 0.020821, 0.020514, 0.020301, 0.020154, 0.019741, 0.019523, 0.019214, 0.019443, 0.020446, 0.021749, 0.022849, 0.023661, 0.024443, 0.025501, 0.026559, 0.027070, 0.027199, 0.027477, 0.027468, 0.027567, 0.027576, 0.027817, 0.028196, 0.028424, 0.028395, 0.028584, 0.028460, 0.027881, 0.027163, 0.026850, 0.027160, 0.027809, 0.028332, 0.028443, 0.028559, 0.028952, 0.029457, 0.029916, 0.030245, 0.030554, 0.030861, 0.031570, 0.032349, 0.032757, 0.032571, 0.032177, 0.032314, 0.032846, 0.032910, 0.032047, 0.030917, 0.030260, 0.030269, 0.029842, 0.029266, 0.028546, 0.027992, 0.027643, 0.027447, 0.027337, 0.027238, 0.027026, 0.026839, 0.026860, 0.027055, 0.027452, 0.028134, 0.028645, 0.028903, 0.029104, 0.028848, 0.029210, 0.029522, 0.029087, 0.028028, 0.026984, 0.026242, 0.025710, 0.025827, 0.026931, 0.028925, 0.030826, 0.031731, 0.032078, 0.032309, 0.033385, 0.034772, 0.036545, 0.038908, 0.041374, 0.042711, 0.042745, 0.043279, 0.044298, 0.044991, 0.044918, 0.044151, 0.043943, 0.044409, 0.044598, 0.044455, 0.044808, 0.045282, 0.045713, 0.046192, 0.046459, 0.045917, 0.045617, 0.046423, 0.047861, 0.048941, 0.049116, 0.048740, 0.048406, 0.048332, 0.048342, 0.048579, 0.049233, 0.050003, 0.050683, 0.051528, 0.052287, 0.052693, 0.052465, 0.052672, 0.053351, 0.054031, 0.054177, 0.053674, 0.052901, 0.052120, 0.051493, 0.051088, 0.050937, 0.051021, 0.051345, 0.051307, 0.050986, 0.050695, 0.050660, 0.050851, 0.051235, 0.051449, 0.050428, 0.048621, 0.046793, 0.045265, 0.044132, 0.044486, 0.045050, 0.044532, 0.042866, 0.041138, 0.039573, 0.038727, 0.039085, 0.040475, 0.040810, 0.039929, 0.039387, 0.039698, 0.040822, 0.041722, 0.042434, 0.043458, 0.044565, 0.044969, 0.045007, 0.044909, 0.044652, 0.044342, 0.044369, 0.043834, 0.043413, 0.044169, 0.046418, 0.049124, 0.050779, 0.050676, 0.052027, 0.054074, 0.055747, 0.056483, 0.056288, 0.055485, 0.054733, 0.053923, 0.053589, 0.053768, 0.053393, 0.053357, 0.053965, 0.054986, 0.055754, 0.055900, 0.056925, 0.058187, 0.058745, 0.058514, 0.058446, 0.058481, 0.059076, 0.059730, 0.060466, 0.061628, 0.062792, 0.062621, 0.063912, 0.066958, 0.069696, 0.071274, 0.072685, 0.074916, 0.076867, 0.078202, 0.078626, 0.079105, 0.080048, 0.080531, 0.080139, 0.079107, 0.077845, 0.076949, 0.077085, 0.076659, 0.076228, 0.075678, 0.074720, 0.073382, 0.072243, 0.071037, 0.069713, 0.068670, 0.068073, 0.067775, 0.067616, 0.067550, 0.067646, 0.066906, 0.064901, 0.061914, 0.058952, 0.056953, 0.057479, 0.057267, 0.056004, 0.054329, 0.054692, 0.056550, 0.058877, 0.060575, 0.061704, 0.062097, 0.062397, 0.063126, 0.063547, 0.063424, 0.062673, 0.062025, 0.062164, 0.061118, 0.060362, 0.060530, 0.060772, 0.061767, 0.064114, 0.065978, 0.066458, 0.065384, 0.063919, 0.062464, 0.062825, 0.061719, 0.058725, 0.055863, 0.054145, 0.053153, 0.052413, 0.051889, 0.051574, 0.051080, 0.052218, 0.053915, 0.055492, 0.056510, 0.057405, 0.058909, 0.060784, 0.061926, 0.062708, 0.062756, 0.062853, 0.063603, 0.064849, 0.065628, 0.065868, 0.065981, 0.066486, 0.067132, 0.068062, 0.069531, 0.071537, 0.073623, 0.075151, 0.075840, 0.075989, 0.076172, 0.076756, 0.076360, 0.075539, 0.075631, 0.076547, 0.076033, 0.074393, 0.072205, 0.070651, 0.069510, 0.069099, 0.069238, 0.069090, 0.068110, 0.067116, 0.067390, 0.068393, 0.069087, 0.069622, 0.069239, 0.068517, 0.068572, 0.067780, 0.065464, 0.062835, 0.061304, 0.061322, 0.061939, 0.063706, 0.066263, 0.069709, 0.073677, 0.077250, 0.080107, 0.081928, 0.081927, 0.079808, 0.079290, 0.081678, 0.084337, 0.086715, 0.089947, 0.094190, 0.097824, 0.098848, 0.096946, 0.097268, 0.098464, 0.098977, 0.098288, 0.097627, 0.096439, 0.095799, 0.095827, 0.095800, 0.095542, 0.095717, 0.096288, 0.096171, 0.094117, 0.094309, 0.096201, 0.097988, 0.097953, 0.098834, 0.099956, 0.099970, 0.101223, 0.102913, 0.104246, 0.105197, 0.106243, 0.107457, 0.107668, 0.107960, 0.108419, 0.108479, 0.108216, 0.107914, 0.108185, 0.107697, 0.107133, 0.107642, 0.108717, 0.109888, 0.111537, 0.114181, 0.117282, 0.119576, 0.120558, 0.120893, 0.121086, 0.120468, 0.118946, 0.116412, 0.112362, 0.109132, 0.106654, 0.104102, 0.101401, 0.100182, 0.100282, 0.099064, 0.096236, 0.092828, 0.089226, 0.085012, 0.080143, 0.075757, 0.073448, 0.073692, 0.071972, 0.070336, 0.069652, 0.069660, 0.069579, 0.070357, 0.071307, 0.072510, 0.074228, 0.075842, 0.076861, 0.077091, 0.077184, 0.078327, 0.076809, 0.073756, 0.071167, 0.070901, 0.069658, 0.068013, 0.068308, 0.066871, 0.065656, 0.066534, 0.068472, 0.069587, 0.069622, 0.069789, 0.069954, 0.069422, 0.069273, 0.071006, 0.074641, 0.078375, 0.081842, 0.084264, 0.085158, 0.085495, 0.085552, 0.084649, 0.082467, 0.080020, 0.078565, 0.077944, 0.078105, 0.079535, 0.082112, 0.085379, 0.089505, 0.095222, 0.099723, 0.102027, 0.102620, 0.102597, 0.103022, 0.104022, 0.104536, 0.105151, 0.106563, 0.107576, 0.107892, 0.107909, 0.108249, 0.109687, 0.112653, 0.116342, 0.118898, 0.119845, 0.119934, 0.120794, 0.122298, 0.124426, 0.126346, 0.126647, 0.124784, 0.124186, 0.123042, 0.122257, 0.122534, 0.121806, 0.123283, 0.126051, 0.127701, 0.127491, 0.129128, 0.131662, 0.135522, 0.138345, 0.138229, 0.136071, 0.134384, 0.134784, 0.136944, 0.139617, 0.141755, 0.141426, 0.141438, 0.141535, 0.140450, 0.137755, 0.135573, 0.134986, 0.134865, 0.134696, 0.134279, 0.133465, 0.132488, 0.131514, 0.131711, 0.132700, 0.132932, 0.132150, 0.129866, 0.125341, 0.120784, 0.118102, 0.117856, 0.119245, 0.121187, 0.122345, 0.124041, 0.127104, 0.130553, 0.132089, 0.132125, 0.130951, 0.130048, 0.130686, 0.130772, 0.130044, 0.130594, 0.134148, 0.139782, 0.144750, 0.145948, 0.144049, 0.140864, 0.137606, 0.135596, 0.135499, 0.134252, 0.134154, 0.134536, 0.133913, 0.134214, 0.134488, 0.135329, 0.138088, 0.142556, 0.143430, 0.140810, 0.139818, 0.139298, 0.139207, 0.140747, 0.144145, 0.147530, 0.148993, 0.148902, 0.149234, 0.151288, 0.150273, 0.146524, 0.143644, 0.142846, 0.142868, 0.141325, 0.140636, 0.142171, 0.145890, 0.151378, 0.157808, 0.164515, 0.169792, 0.171992, 0.170818, 0.170195, 0.171503, 0.174430, 0.176525, 0.176782, 0.175957, 0.175250, 0.174776, 0.173317, 0.170827, 0.167256, 0.163908, 0.161842, 0.160603, 0.159755, 0.160317, 0.160670, 0.160571, 0.159041, 0.155274, 0.149930, 0.144837, 0.141490, 0.140133, 0.140135, 0.140118, 0.139982, 0.139956, 0.140030, 0.139990, 0.139568, 0.138642, 0.137930, 0.137581, 0.135491, 0.132003, 0.127618, 0.123465, 0.121458, 0.122015, 0.120387, 0.118438, 0.117235, 0.115855, 0.112878, 0.108397, 0.104770, 0.103586, 0.103731, 0.104492, 0.105933, 0.107803, 0.108736, 0.108994, 0.108333, 0.108827, 0.108398, 0.105713, 0.102070, 0.098181, 0.093533, 0.087635, 0.081902, 0.079436, 0.079799, 0.079394, 0.078059, 0.077020, 0.076075, 0.074354, 0.072302, 0.072285, 0.073417, 0.074676, 0.074360, 0.075672, 0.076511, 0.074984, 0.074621, 0.076325, 0.077533, 0.078384, 0.079835, 0.081077, 0.080560, 0.080855, 0.080076, 0.078312, 0.077901, 0.078514, 0.079869, 0.081672, 0.083396, 0.084425, 0.084361, 0.084885, 0.086198, 0.088048, 0.090173, 0.092381, 0.094464, 0.096213, 0.097506, 0.098325, 0.098632, 0.098324, 0.097523, 0.096796, 0.096750, 0.097228, 0.097202, 0.098398, 0.099951, 0.100331, 0.098970, 0.096683, 0.094981, 0.093954, 0.093403, 0.093445, 0.093345, 0.093899, 0.095725, 0.097296, 0.097103, 0.095249, 0.095480, 0.096703, 0.096303, 0.095131, 0.094214, 0.093234, 0.092001, 0.090479, 0.089303, 0.089133, 0.087223, 0.084637, 0.082945, 0.083064, 0.081808, 0.081514, 0.083240, 0.083168, 0.081433, 0.080637, 0.079279, 0.077060, 0.075755, 0.076624, 0.075695, 0.075172, 0.076812, 0.078381, 0.079549, 0.080118, 0.080627, 0.081825, 0.083458, 0.084473, 0.084312, 0.083932, 0.082467, 0.080558, 0.079781, 0.081169, 0.084430, 0.088192, 0.090936, 0.092055, 0.092057, 0.091501, 0.090270, 0.089198, 0.088962, 0.090645, 0.090930, 0.088933, 0.086359, 0.084761, 0.085237, 0.085694, 0.085858, 0.087315, 0.088957, 0.089566, 0.088506, 0.086878, 0.085272, 0.084330, 0.084552, 0.083255, 0.082199, 0.082697, 0.084763, 0.086809, 0.087475, 0.086983, 0.088036, 0.090311, 0.091773, 0.092360, 0.092502, 0.092594, 0.092531, 0.092568, 0.092272, 0.091855, 0.092252, 0.093354, 0.092681, 0.091220, 0.090066, 0.089758, 0.089940, 0.091137, 0.092979, 0.094036, 0.094077, 0.093075, 0.091156, 0.088780, 0.085910, 0.083329, 0.082735, 0.083378, 0.084213, 0.086118, 0.088299, 0.089095, 0.087826, 0.085419, 0.083291, 0.081934, 0.080796, 0.080149, 0.081953, 0.086001, 0.090808, 0.094674, 0.096033, 0.095156, 0.093915, 0.093927, 0.094949, 0.095002, 0.094440, 0.094557, 0.093545, 0.091760, 0.091216, 0.091927, 0.092328, 0.092213, 0.091994, 0.091753, 0.092381, 0.093250, 0.093874, 0.094227, 0.094928, 0.096834, 0.099402, 0.100462, 0.100685, 0.100955, 0.101605, 0.102152, 0.102191, 0.103578, 0.106088, 0.108431, 0.109442, 0.108712, 0.107561, 0.107378, 0.108088, 0.109533, 0.111017, 0.112075, 0.111722, 0.109353, 0.107885, 0.107775, 0.109439, 0.112519, 0.115277, 0.116789, 0.117436, 0.118080, 0.119019, 0.119580, 0.118767, 0.116248, 0.115110, 0.114070, 0.112109, 0.109744, 0.108847, 0.110213, 0.110903, 0.110998, 0.111751, 0.109977, 0.104885, 0.103246, 0.105028, 0.107442, 0.108983, 0.109783, 0.110560, 0.111707, 0.112085, 0.112332, 0.112972, 0.112593, 0.112094, 0.112730, 0.114410, 0.116930, 0.120142, 0.122589, 0.123157, 0.121570, 0.119442, 0.117272, 0.114978, 0.112691, 0.110537, 0.108665, 0.107291, 0.106591, 0.106646, 0.107245, 0.106460, 0.104266, 0.101621, 0.100029, 0.100282, 0.101177, 0.101388, 0.101209, 0.100490, 0.099038, 0.097077, 0.096287, 0.097680, 0.098836, 0.099804, 0.099834, 0.098229, 0.095657, 0.094303, 0.093532, 0.092924, 0.091335, 0.088934, 0.088959, 0.091612, 0.092989, 0.093658, 0.094478, 0.095411, 0.095504, 0.094663, 0.094761, 0.092955, 0.088158, 0.084729, 0.084916, 0.083786, 0.081432, 0.078940, 0.076780, 0.075005, 0.073764, 0.073372, 0.073778, 0.074599, 0.075500, 0.076501, 0.076834, 0.075646, 0.073527, 0.071099, 0.068600, 0.067103, 0.068003, 0.071276, 0.074163, 0.075191, 0.074789, 0.074159, 0.074035, 0.073947, 0.073487, 0.073837, 0.073810, 0.073621, 0.074761, 0.076291, 0.077331, 0.077544, 0.077026, 0.076049, 0.074946, 0.074026, 0.073371, 0.072736, 0.073290, 0.074130, 0.073395, 0.072689, 0.073681, 0.075207, 0.075858, 0.075718, 0.077012, 0.078792, 0.079956, 0.081043, 0.082353, 0.081718, 0.079666, 0.077345, 0.075331, 0.073869, 0.072317, 0.070307, 0.068968, 0.068499, 0.068730, 0.069081, 0.068626, 0.067850, 0.067358, 0.067508, 0.068205, 0.068768, 0.068829, 0.068380, 0.067559, 0.066532, 0.065604, 0.064721, 0.063861, 0.063283, 0.063285, 0.063574, 0.063411, 0.062862, 0.061921, 0.060120, 0.057841, 0.056173, 0.055630, 0.055443, 0.056157, 0.056927, 0.058002, 0.059550, 0.060110, 0.060800, 0.061560, 0.060850, 0.059203, 0.057533, 0.056499, 0.056250, 0.056994, 0.058203, 0.059385, 0.060381, 0.061373, 0.061075, 0.060260, 0.061352, 0.062586, 0.062231, 0.061646, 0.062285, 0.063738, 0.062785, 0.061508, 0.060513, 0.059287, 0.057925, 0.057835, 0.058473, 0.059055, 0.059356, 0.059220, 0.059188, 0.059609, 0.059512, 0.058945, 0.058272, 0.057788, 0.057589, 0.057506, 0.057187, 0.056497, 0.055651, 0.054979, 0.054729, 0.054809, 0.054846, 0.054600, 0.054059, 0.053535, 0.053273, 0.053203, 0.053083, 0.052854, 0.052730, 0.052528, 0.051963, 0.051032, 0.049663, 0.048074, 0.046987, 0.047052, 0.046520, 0.045508, 0.044259, 0.042971, 0.041768, 0.040509, 0.039410, 0.038947, 0.039072, 0.039134, 0.039309, 0.039317, 0.038618, 0.037708, 0.037042, 0.036718, 0.036757, 0.037382, 0.037854, 0.037190, 0.035381, 0.032585, 0.029450, 0.027044, 0.025961, 0.025481, 0.025863, 0.027886, 0.031691, 0.035895, 0.037918, 0.038152, 0.038120, 0.038580, 0.038869, 0.039085, 0.039659, 0.039889, 0.039918, 0.040939, 0.042419, 0.043730, 0.044362, 0.044218, 0.044547, 0.044913, 0.044920, 0.045258, 0.045522, 0.045521, 0.045516, 0.045649, 0.045907, 0.046088, 0.045986, 0.046733, 0.048281, 0.050287, 0.052383, 0.054296, 0.055990, 0.057366, 0.058485, 0.059542, 0.060529, 0.061141, 0.061116, 0.060673, 0.060275, 0.060035, 0.060284, 0.060427, 0.059929, 0.059332, 0.059425, 0.059373, 0.058988, 0.058970, 0.059254, 0.059298, 0.058713, 0.057765, 0.057358, 0.057328, 0.057360, 0.057263, 0.057034, 0.056708, 0.056236, 0.055685, 0.055504, 0.054598, 0.051806, 0.047517, 0.043198, 0.040289, 0.038973, 0.038484, 0.038351, 0.038813, 0.039073, 0.038223, 0.038293, 0.039594, 0.040320, 0.040049, 0.038709, 0.039249, 0.041305, 0.043037, 0.044521, 0.046046, 0.046838, 0.047257, 0.047311, 0.048206, 0.050290, 0.053355, 0.056708, 0.059474, 0.060048, 0.058881, 0.057038, 0.055207, 0.053460, 0.051811, 0.050469, 0.049490, 0.048595, 0.047521, 0.046693, 0.046447, 0.046453, 0.046414, 0.046270, 0.045837, 0.045465, 0.045449, 0.045625, 0.045529, 0.045323, 0.045626, 0.045854, 0.045736, 0.045450, 0.045325, 0.045212, 0.044889, 0.044522, 0.044015, 0.043297, 0.042641, 0.042592, 0.042961, 0.043542, 0.044145, 0.044722, 0.045406, 0.046214, 0.047196, 0.048201, 0.048861, 0.048773, 0.048389, 0.047991, 0.047483, 0.047497, 0.047275, 0.046366, 0.045298, 0.044936, 0.045769, 0.045087, 0.043288, 0.041205, 0.039619, 0.038848, 0.038685, 0.038726, 0.038893, 0.038105, 0.036034, 0.032680, 0.029054, 0.026540, 0.025864, 0.026694, 0.028089, 0.029223, 0.029797, 0.029999, 0.030259, 0.030862, 0.031771, 0.032871, 0.033832, 0.034580, 0.035292, 0.035827, 0.036158, 0.036312, 0.036309, 0.036378, 0.036649, 0.037294, 0.038166, 0.038603, 0.038610, 0.038561, 0.038797, 0.039347, 0.040114, 0.040388, 0.040051, 0.039523, 0.039293, 0.039318, 0.039072, 0.038690, 0.038215, 0.037621, 0.037108, 0.036623, 0.035995, 0.035136, 0.034220, 0.033586, 0.033403, 0.033274, 0.033097, 0.033062, 0.032888, 0.032548, 0.032101, 0.031498, 0.030708, 0.029964, 0.029674, 0.030008, 0.030628, 0.030849, 0.030263, 0.029269, 0.028494, 0.028195, 0.028137, 0.028069, 0.028193, 0.028452, 0.028587, 0.028367, 0.027685, 0.026632, 0.025562, 0.024791, 0.024596, 0.024627, 0.024383, 0.023781, 0.023072, 0.022500, 0.022154, 0.021958, 0.021814, 0.021722, 0.021685, 0.021669, 0.021530, 0.021115, 0.020308, 0.019473, 0.018751, 0.018278, 0.017964, 0.017440, 0.016704, 0.016101, 0.015991, 0.016490, 0.017437, 0.018604, 0.019825, 0.020837, 0.021374, 0.021540, 0.021710, 0.021806, 0.021628, 0.021617, 0.021745, 0.021849, 0.021881, 0.022027, 0.022264, 0.022597, 0.023194, 0.023877, 0.024057, 0.023832, 0.023761, 0.023692, 0.023766, 0.023807, 0.023673, 0.023417, 0.023248, 0.023250, 0.023326, 0.023730, 0.024296, 0.024596, 0.024488, 0.024584, 0.024521, 0.024050, 0.023599, 0.022974, 0.022709, 0.022684, 0.022726, 0.022592, 0.022269, 0.021792, 0.021309, 0.020885, 0.020461, 0.019978, 0.019419, 0.019136, 0.019186, 0.019470, 0.019869, 0.020189, 0.020501, 0.020811, 0.020780, 0.020968, 0.021547, 0.022389, 0.023393, 0.024160, 0.024251, 0.023904, 0.023257, 0.022422, 0.021741, 0.021002, 0.020206, 0.019523, 0.019541, 0.019952, 0.020510, 0.021236, 0.021641, 0.021765, 0.021713, 0.021506, 0.021506, 0.021437, 0.021074, 0.020439, 0.019782, 0.019540, 0.019761, 0.019924, 0.020193, 0.020254, 0.019961, 0.019601, 0.019302, 0.019078, 0.019060, 0.019186, 0.019012, 0.018672, 0.018470, 0.018497, 0.018169, 0.017906, 0.017971, 0.017886, 0.017934, 0.017815, 0.017728, 0.017751, 0.017707, 0.017615, 0.017536, 0.017571, 0.017651, 0.017641, 0.017608, 0.017736, 0.017687, 0.017453, 0.017112, 0.016794, 0.016613, 0.016377, 0.016067, 0.016147, 0.016173, 0.015911, 0.015323, 0.014539, 0.013897, 0.013719, 0.013680, 0.013678, 0.013716, 0.013416, 0.012911, 0.012648, 0.012778, 0.012543, 0.011942, 0.011301, 0.010712, 0.010133, 0.009889, 0.010304, 0.011333, 0.012199, 0.012676, 0.012812, 0.012864, 0.012972, 0.012893, 0.012959, 0.013139, 0.013309, 0.013498, 0.013909, 0.014311, 0.014468, 0.014320, 0.014302, 0.014153, 0.013895, 0.013750, 0.013736, 0.013790, 0.013826, 0.013866, 0.014131, 0.014908, 0.016180, 0.017504, 0.018436, 0.018925, 0.019196, 0.019333, 0.019337, 0.019621, 0.020390, 0.021718, 0.023366, 0.025032, 0.026542, 0.027601, 0.028138, 0.028220, 0.028086, 0.028137, 0.028323, 0.028250, 0.028061, 0.027953, 0.027970, 0.027941, 0.027864, 0.028035, 0.028108, 0.028048, 0.028133, 0.028257, 0.028456, 0.028499, 0.028365, 0.028448, 0.028673, 0.028692, 0.028572, 0.028557, 0.028500, 0.028085, 0.027186, 0.026891, 0.027240, 0.027718, 0.027866, 0.027733, 0.027779, 0.027576, 0.027326, 0.027222, 0.027158, 0.026929, 0.026549, 0.026221, 0.026409, 0.026552, 0.026702, 0.026794, 0.026769, 0.026900, 0.027490, 0.028554, 0.029684, 0.030241, 0.029744, 0.028447, 0.027157, 0.026168, 0.025637, 0.025529, 0.025873, 0.026936, 0.028255, 0.029249, 0.029164, 0.027658, 0.026483, 0.025512, 0.024483, 0.024170, 0.024311, 0.024362, 0.024275, 0.024418, 0.024891, 0.025370, 0.025416, 0.025052, 0.024990, 0.025049, 0.024815, 0.024716, 0.025032, 0.025604, 0.026314, 0.026694, 0.026635, 0.027201, 0.027548, 0.027454, 0.027476, 0.027615, 0.027607, 0.027512, 0.027357, 0.027253, 0.026497, 0.025460, 0.024659, 0.024333, 0.024352, 0.024440, 0.024585, 0.024512, 0.024201, 0.023947, 0.023778, 0.023718, 0.023847, 0.023884, 0.023898, 0.023954, 0.024027, 0.023982, 0.023867, 0.023448, 0.022695, 0.021874, 0.021345, 0.021289, 0.021418, 0.021295, 0.021171, 0.021441, 0.021973, 0.022332, 0.022015, 0.020875, 0.019370, 0.018326, 0.018246, 0.017675, 0.017232, 0.017332, 0.017163, 0.016876, 0.016726, 0.016625, 0.016419, 0.016078, 0.015734, 0.015596, 0.015668, 0.015490, 0.015459, 0.015593, 0.015707, 0.015497, 0.014762, 0.013713, 0.013117, 0.013119, 0.012554, 0.012058, 0.011926, 0.011837, 0.011762, 0.011811, 0.011793, 0.011760, 0.011747, 0.011754, 0.011764, 0.011803, 0.011923, 0.012129, 0.012226, 0.012164, 0.012156, 0.012315, 0.012547, 0.012889, 0.013242, 0.013513, 0.013668, 0.013743, 0.013781, 0.013788, 0.013807, 0.013685, 0.013457, 0.013220, 0.012960, 0.012653, 0.012644, 0.012749, 0.012806, 0.012759, 0.012514, 0.011936, 0.011172, 0.010505, 0.010082, 0.009856, 0.009770, 0.009844, 0.009954, 0.009849, 0.009756, 0.009923, 0.010352, 0.010901, 0.011359, 0.011514, 0.011312, 0.011256, 0.011324, 0.011429, 0.011506, 0.011419, 0.011255, 0.011143, 0.011123, 0.011198, 0.011460, 0.011740, 0.011925, 0.011952, 0.012069, 0.012219, 0.012237, 0.012201, 0.012255, 0.012458, 0.012725, 0.012936, 0.012957, 0.012893, 0.012909, 0.012894, 0.012662, 0.012591, 0.012677, 0.012759, 0.012678, 0.012395, 0.011981, 0.011679, 0.011582, 0.011647, 0.011698, 0.011635, 0.011487, 0.011635, 0.011903, 0.012174, 0.012349, 0.012418, 0.012379, 0.012283, 0.012317, 0.012631, 0.013144, 0.013414, 0.013465, 0.013387, 0.013396, 0.013481, 0.013618, 0.013782, 0.013892, 0.013947, 0.013985, 0.013933, 0.013743, 0.013463, 0.013147, 0.012910, 0.012863, 0.012994, 0.012888, 0.012719, 0.012588, 0.012532, 0.012629, 0.012744, 0.012737, 0.012581, 0.012371, 0.012115, 0.011766, 0.011593, 0.011720, 0.011790, 0.011815, 0.011866, 0.011936, 0.011938, 0.011778, 0.011539, 0.011469, 0.011643, 0.011800, 0.011696, 0.011797, 0.012109, 0.012145, 0.011937, 0.011748, 0.011668, 0.011709, 0.011841, 0.011919, 0.011877, 0.011666, 0.011323, 0.011127, 0.011255, 0.011203, 0.010904, 0.010637, 0.010368, 0.010168, 0.010263, 0.010212, 0.009962, 0.009551, 0.009127, 0.008854, 0.008795, 0.008916, 0.008940, 0.008765, 0.008473, 0.008151, 0.007910, 0.007701, 0.007610, 0.007594, 0.007548, 0.007413, 0.007193, 0.006939, 0.006726, 0.006663, 0.006660, 0.006592, 0.006570, 0.006650, 0.006658, 0.006616, 0.006606, 0.006694, 0.006763, 0.006752, 0.006935, 0.007127, 0.007300, 0.007421, 0.007457, 0.007401, 0.007271, 0.007134, 0.007059, 0.007006, 0.006851, 0.006631, 0.006511, 0.006592, 0.006476, 0.006284, 0.006108, 0.006154, 0.006312, 0.006402, 0.006329, 0.006236, 0.006104, 0.005902, 0.005680, 0.005735, 0.005877, 0.005898, 0.005927, 0.006089, 0.006179, 0.006312, 0.006493, 0.006448, 0.006435, 0.006487, 0.006447, 0.006381, 0.006271, 0.006254, 0.006338, 0.006518, 0.006797, 0.007152, 0.007649, 0.008289, 0.009049, 0.009657, 0.009991, 0.010019, 0.010107, 0.010228, 0.010305, 0.010458, 0.010744, 0.011137, 0.011527, 0.011744, 0.011801, 0.011791, 0.011847, 0.012042, 0.012349, 0.012758, 0.013247, 0.013545, 0.013605, 0.013389, 0.013188, 0.013375, 0.013923, 0.014600, 0.015144, 0.015465, 0.015639, 0.015781, 0.015892, 0.015945, 0.015902, 0.015897, 0.016066, 0.016422, 0.016704, 0.016779, 0.016730, 0.016770, 0.016905, 0.017157, 0.017546, 0.017979, 0.018141, 0.018055, 0.017880, 0.017766, 0.017638, 0.017592, 0.017444, 0.017407, 0.017686, 0.017887, 0.017888, 0.017888, 0.017947, 0.018185, 0.018418, 0.018522, 0.018546, 0.018627, 0.018713, 0.018606, 0.018202, 0.017590, 0.016941, 0.016655, 0.016819, 0.016957, 0.016982, 0.016955, 0.016843, 0.016576, 0.016251, 0.016098, 0.016231, 0.016604, 0.017081, 0.017359, 0.017114, 0.016953, 0.016628, 0.016127, 0.015756, 0.015516, 0.015485, 0.015491, 0.015278, 0.014857, 0.014351, 0.013911, 0.013585, 0.013383, 0.013234, 0.013136, 0.013203, 0.013480, 0.013671, 0.013545, 0.013261, 0.013039, 0.012930, 0.012924, 0.012869, 0.012714, 0.012445, 0.012271, 0.012234, 0.012203, 0.012132, 0.012408, 0.012507, 0.012652, 0.012841, 0.012885, 0.013006, 0.013167, 0.013232, 0.013133, 0.013354, 0.013673, 0.013759, 0.013630, 0.013532, 0.013524, 0.013481, 0.013368, 0.013228, 0.012990, 0.013126, 0.013706, 0.014186, 0.014248, 0.013995, 0.013868, 0.014117, 0.014550, 0.014947, 0.015259, 0.015428, 0.015349, 0.014956, 0.014366, 0.013978, 0.014141, 0.014090, 0.013912, 0.014180, 0.014510, 0.014829, 0.015029, 0.015035, 0.014933, 0.014911, 0.015041, 0.015270, 0.015469, 0.015524, 0.015575, 0.015694, 0.015669, 0.015370, 0.015192, 0.015224, 0.015277, 0.015208, 0.015173, 0.015299, 0.015472, 0.015509, 0.015498, 0.015386, 0.015266, 0.015299, 0.015436, 0.015160, 0.015115, 0.015006, 0.014701, 0.014609, 0.014330, 0.013914, 0.013697, 0.013875, 0.013952, 0.014013, 0.014260, 0.014631, 0.014839, 0.014742, 0.014476, 0.014228, 0.014107, 0.014215, 0.014056, 0.013534, 0.012981, 0.012874, 0.013119, 0.013280, 0.013069, 0.012648, 0.012342, 0.012214, 0.012134, 0.012100, 0.012227, 0.012484, 0.012697, 0.012784, 0.012861, 0.013024, 0.012745, 0.012347, 0.011941, 0.011668, 0.011624, 0.011705, 0.011543, 0.011461, 0.011414, 0.011307, 0.011349, 0.011468, 0.011388, 0.011295, 0.011452, 0.011501, 0.011377, 0.011249, 0.011326, 0.011475, 0.011521, 0.011481, 0.011454, 0.011426, 0.011309, 0.011109, 0.010969, 0.010983, 0.011084, 0.011005, 0.010938, 0.011013, 0.011150, 0.011249, 0.011225, 0.011123, 0.010961, 0.010699, 0.010282, 0.009704, 0.009168, 0.008815, 0.008688, 0.008681, 0.008698, 0.008759, 0.008956, 0.009307, 0.009729, 0.010109, 0.010310, 0.010476, 0.010725, 0.011100, 0.011528, 0.011882, 0.012132, 0.012333, 0.012504, 0.012628, 0.012692, 0.012646, 0.012378, 0.012288, 0.012458, 0.012982, 0.013784, 0.014791, 0.015661, 0.016293, 0.017063, 0.018430, 0.019690, 0.020351, 0.020419, 0.020605, 0.020802, 0.021097, 0.021570, 0.022156, 0.022834, 0.023569, 0.024291, 0.024821, 0.025091, 0.025092, 0.025002, 0.025242, 0.025620, 0.025999, 0.026325, 0.026512, 0.026545, 0.026548, 0.026673, 0.027243, 0.028627, 0.030843, 0.033325, 0.035398, 0.036882, 0.037915, 0.038514, 0.038655, 0.038759, 0.038739, 0.038906, 0.039181, 0.039182, 0.039491, 0.040101, 0.040742, 0.041340, 0.042091, 0.043080, 0.044060, 0.044742, 0.044958, 0.044702, 0.044374, 0.044714, 0.046103, 0.048189, 0.050389, 0.052481, 0.054568, 0.056697, 0.058747, 0.060110, 0.060592, 0.060095, 0.059802, 0.059150, 0.058525, 0.058553, 0.057979, 0.057829, 0.059792, 0.063601, 0.067374, 0.068631, 0.068568, 0.068361, 0.069022, 0.070470, 0.071880, 0.072882, 0.073488, 0.073744, 0.073666, 0.073491, 0.073939, 0.074467, 0.075067, 0.075767, 0.076639, 0.077760, 0.079139, 0.080595, 0.081679, 0.081706, 0.080256, 0.078073, 0.075940, 0.075302, 0.075832, 0.076389, 0.076171, 0.076864, 0.078524, 0.080443, 0.081907, 0.083200, 0.085280, 0.087853, 0.090483, 0.092490, 0.093174, 0.092196, 0.091757, 0.092106, 0.092979, 0.094294, 0.096109, 0.098095, 0.099330, 0.099105, 0.097578, 0.095282, 0.092984, 0.090715, 0.088787, 0.087530, 0.086536, 0.085859, 0.086671, 0.087518, 0.089095, 0.091255, 0.092966, 0.094710, 0.095292, 0.093683, 0.090798, 0.088401, 0.087650, 0.087541, 0.088633, 0.089780, 0.090845, 0.092127, 0.093206, 0.093635, 0.093658, 0.093859, 0.094272, 0.093955, 0.093260, 0.092543, 0.091957, 0.091734, 0.091821, 0.091909, 0.091866, 0.091974, 0.092480, 0.092874, 0.093450, 0.094729, 0.095204, 0.094804, 0.094478, 0.095111, 0.094968, 0.093499, 0.091585, 0.090077, 0.088843, 0.087468, 0.085616, 0.083397, 0.081237, 0.079526, 0.080548, 0.082083, 0.083819, 0.085857, 0.087997, 0.089808, 0.091067, 0.092011, 0.092782, 0.092813, 0.093515, 0.096231, 0.099505, 0.102419, 0.105522, 0.109824, 0.114351, 0.116494, 0.116558, 0.115997, 0.115698, 0.115571, 0.115295, 0.114692, 0.113555, 0.111688, 0.111080, 0.112232, 0.114783, 0.116685, 0.117447, 0.116932, 0.115634, 0.114037, 0.112561, 0.113818, 0.116708, 0.119991, 0.123183, 0.126336, 0.129907, 0.133980, 0.137558, 0.139597, 0.140054, 0.139731, 0.139368, 0.139283, 0.139646, 0.138896, 0.138353, 0.138745, 0.140233, 0.142480, 0.145293, 0.148876, 0.153460, 0.158710, 0.163528, 0.166876, 0.167942, 0.166809, 0.166746, 0.167547, 0.169351, 0.170225, 0.170086, 0.168732, 0.166230, 0.163104, 0.159815, 0.156536, 0.154601, 0.154019, 0.155077, 0.156165, 0.155451, 0.154304, 0.153223, 0.151457, 0.148792, 0.146662, 0.146466, 0.147377, 0.146971, 0.145839, 0.146180, 0.147598, 0.149072, 0.150027, 0.150972, 0.151263, 0.151779, 0.152689, 0.153236, 0.152481, 0.149974, 0.149352, 0.150606, 0.152753, 0.152665, 0.151462, 0.150419, 0.149307, 0.146693, 0.143923, 0.140986, 0.137439, 0.134345, 0.133033, 0.133437, 0.134099, 0.133782, 0.133392, 0.134488, 0.134653, 0.133496, 0.131104, 0.128225, 0.126012, 0.124843, 0.123304, 0.119320, 0.115626, 0.113874, 0.112555, 0.112950, 0.113251, 0.116478, 0.121124, 0.124133, 0.124723, 0.124870, 0.126535, 0.129723, 0.133225, 0.135887, 0.136017, 0.134324, 0.132316, 0.130765, 0.130171, 0.130809, 0.132327, 0.133853, 0.134571, 0.134177, 0.132995, 0.131685, 0.130727, 0.131216, 0.131197, 0.130568, 0.129521, 0.128703, 0.128426, 0.127791, 0.125384, 0.122460, 0.120050, 0.119210, 0.120591, 0.120881, 0.120666, 0.120887, 0.121516, 0.121691, 0.120975, 0.120273, 0.121053, 0.121562, 0.121573, 0.121932, 0.122431, 0.122242, 0.121101, 0.119689, 0.119350, 0.120452, 0.122062, 0.123674, 0.124294, 0.123744, 0.123546, 0.122091, 0.119157, 0.116208, 0.115617, 0.115908, 0.116324, 0.117686, 0.117327, 0.117664, 0.114798, 0.109247, 0.104113, 0.101153, 0.099144, 0.096070, 0.092917, 0.090538, 0.089344, 0.089204, 0.089641, 0.089827, 0.089260, 0.087898, 0.085103, 0.081718, 0.078913, 0.077065, 0.075884, 0.074950, 0.074282, 0.074448, 0.072973, 0.070654, 0.069024, 0.069065, 0.070203, 0.071192, 0.071675, 0.072380, 0.072438, 0.071890, 0.070692, 0.069331, 0.068126, 0.066613, 0.064713, 0.062672, 0.060711, 0.058909, 0.057496, 0.056505, 0.055599, 0.054750, 0.054113, 0.053619, 0.052974, 0.053112, 0.053919, 0.054709, 0.054103, 0.051697, 0.048898, 0.047189, 0.047273, 0.047182, 0.047024, 0.047394, 0.047458, 0.046947, 0.045955, 0.043782, 0.042637, 0.044390, 0.044981, 0.045232, 0.045524, 0.045791, 0.047505, 0.049703, 0.052103, 0.053201, 0.053079, 0.052544, 0.052281, 0.052397, 0.052689, 0.052929, 0.053151, 0.054290, 0.055567, 0.056104, 0.055722, 0.054860, 0.054780, 0.054944, 0.054861, 0.055185, 0.055391, 0.055163, 0.054877, 0.055240, 0.056502, 0.058158, 0.059350, 0.059668, 0.059588, 0.059910, 0.060213, 0.059557, 0.059465, 0.059709, 0.059618, 0.059215, 0.059034, 0.058902, 0.058736, 0.058355, 0.057764, 0.057713, 0.057770, 0.057857, 0.057895, 0.057576, 0.056726, 0.056213, 0.057050, 0.058981, 0.062436, 0.067244, 0.072409, 0.076889, 0.079292, 0.081023, 0.083189, 0.085245, 0.087290, 0.087800, 0.086219, 0.083996, 0.081831, 0.080949, 0.080928, 0.081111, 0.082019, 0.083194, 0.084110, 0.084897, 0.086006, 0.087604, 0.089529, 0.091597, 0.093876, 0.095725, 0.096524, 0.096730, 0.096951, 0.097414, 0.097644, 0.097786, 0.098838, 0.100471, 0.101254, 0.101035, 0.100328, 0.098967, 0.096646, 0.093775, 0.091166, 0.089247, 0.088276, 0.087766, 0.087164, 0.086839, 0.086995, 0.086382, 0.085870, 0.086167, 0.087376, 0.088945, 0.090302, 0.090731, 0.090480, 0.090432, 0.089790, 0.089236, 0.089170, 0.088659, 0.088071, 0.087840, 0.087757, 0.086908, 0.084937, 0.081521, 0.077005, 0.072687, 0.069860, 0.068545, 0.067462, 0.065307, 0.063351, 0.062647, 0.063600, 0.065744, 0.067551, 0.068612, 0.068371, 0.068840, 0.068186, 0.066106, 0.063414, 0.061067, 0.059394, 0.058284, 0.057782, 0.057932, 0.058100, 0.057156, 0.055122, 0.054539, 0.054329, 0.054468, 0.055990, 0.059341, 0.061839, 0.061405, 0.060462, 0.060683, 0.061209, 0.061705, 0.062409, 0.063380, 0.064279, 0.064780, 0.064789, 0.065515, 0.067398, 0.070440, 0.073600, 0.076083, 0.077211, 0.076715, 0.076369, 0.075587, 0.074382, 0.073308, 0.072821, 0.072816, 0.072674, 0.072644, 0.073011, 0.073531, 0.073983, 0.074525, 0.075393, 0.076436, 0.077768, 0.079284, 0.080571, 0.081078, 0.080502, 0.079070, 0.077392, 0.076649, 0.077301, 0.077793, 0.077357, 0.076037, 0.074425, 0.073132, 0.072371, 0.072293, 0.071741, 0.070592, 0.069804, 0.069309, 0.068742, 0.068321, 0.067718, 0.066529, 0.064982, 0.064098, 0.064922, 0.066806, 0.066384, 0.065267, 0.065146, 0.063898, 0.060374, 0.058064, 0.057890, 0.057437, 0.056429, 0.056351, 0.056900, 0.057535, 0.057971, 0.058079, 0.057897, 0.057901, 0.057159, 0.055532, 0.052975, 0.049966, 0.047461, 0.046328, 0.046683, 0.046441, 0.045948, 0.046061, 0.046258, 0.046092, 0.046466, 0.047051, 0.047707, 0.048263, 0.048834, 0.049404, 0.049816, 0.049930, 0.049722, 0.049220, 0.048334, 0.047041, 0.045965, 0.045855, 0.046899, 0.048223, 0.048530, 0.047847, 0.046701, 0.045774, 0.045955, 0.046844, 0.047344, 0.047103, 0.047461, 0.047355, 0.047961, 0.048936, 0.050232, 0.051722, 0.052729, 0.053411, 0.054267, 0.055502, 0.056744, 0.057295, 0.056981, 0.056600, 0.056103, 0.054900, 0.054214, 0.054829, 0.054378, 0.053592, 0.053459, 0.053410, 0.052865, 0.051925, 0.050794, 0.049879, 0.049698, 0.050535, 0.052082, 0.053646, 0.054814, 0.055718, 0.056651, 0.057738, 0.058815, 0.059516, 0.060022, 0.060456, 0.060184, 0.059691, 0.059974, 0.060310, 0.060714, 0.060999, 0.060778, 0.060002, 0.059048, 0.058170, 0.057243, 0.056125, 0.055062, 0.054649, 0.055178, 0.055951, 0.056027, 0.055052, 0.053892, 0.053402, 0.053337, 0.053694, 0.054804, 0.055560, 0.055290, 0.054515, 0.054530, 0.054243, 0.054400, 0.054303, 0.053597, 0.052375, 0.050784, 0.050007, 0.049340, 0.047799, 0.045534, 0.042569, 0.039660, 0.037826, 0.037304, 0.037327, 0.037564, 0.038500, 0.039977, 0.041438, 0.042329, 0.042751, 0.043324, 0.044290, 0.045268, 0.045849, 0.045954, 0.045569, 0.044498, 0.043168, 0.042121, 0.041244, 0.040507, 0.040288, 0.041061, 0.042757, 0.044852, 0.047042, 0.049338, 0.051668, 0.053784, 0.054658, 0.054095, 0.054686, 0.056090, 0.057737, 0.059170, 0.060086, 0.060368, 0.060237, 0.060301, 0.060476, 0.060577, 0.060157, 0.059462, 0.059367, 0.060264, 0.061426, 0.061921, 0.061938, 0.061874, 0.061790, 0.062189, 0.063476, 0.065357, 0.066679, 0.067392, 0.067621, 0.067149, 0.066835, 0.067313, 0.068609, 0.069484, 0.070435, 0.071934, 0.073126, 0.073798, 0.073917, 0.074372, 0.074942, 0.075384, 0.074802, 0.073776, 0.072391, 0.071157, 0.070513, 0.070241, 0.069827, 0.069307, 0.069133, 0.069426, 0.069853, 0.070161, 0.070528, 0.070757, 0.070645, 0.070412, 0.069755, 0.069449, 0.069186, 0.068614, 0.067534, 0.065767, 0.063236, 0.061192, 0.060008, 0.059838, 0.060649, 0.059906, 0.058143, 0.056092, 0.054471, 0.053976, 0.054216, 0.054579, 0.054636, 0.054809, 0.054714, 0.054605, 0.054507, 0.054036, 0.053141, 0.052456, 0.052575, 0.053269, 0.053675, 0.052975, 0.050857, 0.048562, 0.046536, 0.045480, 0.045584, 0.045474, 0.046167, 0.047311, 0.047817, 0.047733, 0.047471, 0.047056, 0.046234, 0.045045, 0.044114, 0.044060, 0.044247, 0.044551, 0.044897, 0.044943, 0.044808, 0.044405, 0.043910, 0.044357, 0.045263, 0.046040, 0.046054, 0.045279, 0.045121, 0.045278, 0.045562, 0.046090, 0.046869, 0.047543, 0.047869, 0.048220, 0.047518, 0.046020, 0.044528, 0.043476, 0.042963, 0.043037, 0.042822, 0.042669, 0.043021, 0.043430, 0.043143, 0.042750, 0.042777, 0.042950, 0.043192, 0.043205, 0.043195, 0.043165, 0.042992, 0.043588, 0.045223, 0.047448, 0.049451, 0.050695, 0.051435, 0.052571, 0.054864, 0.058167, 0.061429, 0.063582, 0.063513, 0.064347, 0.065625, 0.066524, 0.067886, 0.068690, 0.068891, 0.069559, 0.070647, 0.071104, 0.070548, 0.070118, 0.071224, 0.073952, 0.077366, 0.080359, 0.082458, 0.083594, 0.083845, 0.084453, 0.086024, 0.088127, 0.089574, 0.090884, 0.092590, 0.094903, 0.097346, 0.098295, 0.098109, 0.097138, 0.096550, 0.096017, 0.095460, 0.095169, 0.095244, 0.095556, 0.095542, 0.094908, 0.094460, 0.095193, 0.097032, 0.098717, 0.098893, 0.097673, 0.097103, 0.097657, 0.098770, 0.099815, 0.100450, 0.100058, 0.099578, 0.099441, 0.099423, 0.100000, 0.100520, 0.100370, 0.099641, 0.099079, 0.099141, 0.099274, 0.098325, 0.095593, 0.091593, 0.088405, 0.087490, 0.089052, 0.089694, 0.089089, 0.087717, 0.086116, 0.084506, 0.082793, 0.080707, 0.078485, 0.077553, 0.078157, 0.079052, 0.078868, 0.077365, 0.075086, 0.072542, 0.070169, 0.068576, 0.068341, 0.067413, 0.065876, 0.064249, 0.062347, 0.059782, 0.057112, 0.054238, 0.052485, 0.052036, 0.052714, 0.054299, 0.055339, 0.055918, 0.056676, 0.058351, 0.061065, 0.063926, 0.065585, 0.065657, 0.067063, 0.068454, 0.070064, 0.073583, 0.079996, 0.087890, 0.094043, 0.097413, 0.097617, 0.096834, 0.097079, 0.097058, 0.097285, 0.097527, 0.097895, 0.098346, 0.097848, 0.096836, 0.098331, 0.101772, 0.105193, 0.106609, 0.105724, 0.107289, 0.109167, 0.109672, 0.109072, 0.108197, 0.107750, 0.107932, 0.108559, 0.109596, 0.111347, 0.113748, 0.116155, 0.117814, 0.118048, 0.117602, 0.117465, 0.117806, 0.118214, 0.118875, 0.120565, 0.123145, 0.125258, 0.126086, 0.126309, 0.126697, 0.126696, 0.127250, 0.130245, 0.133628, 0.136095, 0.136103, 0.135034, 0.134157, 0.133195, 0.132480, 0.132559, 0.133336, 0.133906, 0.133468, 0.132169, 0.131027, 0.130889, 0.129271, 0.127288, 0.126363, 0.126727, 0.127160, 0.126203, 0.123516, 0.120175, 0.119484, 0.120873, 0.122511, 0.125785, 0.128993, 0.130570, 0.130570, 0.131429, 0.132590, 0.133204, 0.130787, 0.126340, 0.121912, 0.119640, 0.120095, 0.118651, 0.117275, 0.116758, 0.116617, 0.116256, 0.115597, 0.114855, 0.114054, 0.112932, 0.111497, 0.109606, 0.108104, 0.108185, 0.110083, 0.112751, 0.115018, 0.116904, 0.119307, 0.122316, 0.124726, 0.125845, 0.126706, 0.128586, 0.131168, 0.132955, 0.132749, 0.135285, 0.139651, 0.144741, 0.149769, 0.154719, 0.158426, 0.159524, 0.158999, 0.158907, 0.158122, 0.158183, 0.157922, 0.156356, 0.155182, 0.156922, 0.160204, 0.163026, 0.164008, 0.161176, 0.156352, 0.149097, 0.142751, 0.139595, 0.138529, 0.138236, 0.136779, 0.136593, 0.136245, 0.134357, 0.132979, 0.135057, 0.136473, 0.138183, 0.140517, 0.142891, 0.144572, 0.145194, 0.145241, 0.146352, 0.150054, 0.155604, 0.160045, 0.161115, 0.161641, 0.163287, 0.166422, 0.172798, 0.182151, 0.191046, 0.196575, 0.198131, 0.197197, 0.195376, 0.193192, 0.190606, 0.187696, 0.184281, 0.179501, 0.176139, 0.176438, 0.179940, 0.183981, 0.186029, 0.185901, 0.186027, 0.182601, 0.175284, 0.166779, 0.159696, 0.155719, 0.153960, 0.153534, 0.154047, 0.155021, 0.158517, 0.162021, 0.164510, 0.165525, 0.165426, 0.164813, 0.162386, 0.159782, 0.158461, 0.160207, 0.163434, 0.166883, 0.167217, 0.167181, 0.167389, 0.168819, 0.171358, 0.170559, 0.167340, 0.165842, 0.165602, 0.164066, 0.161336, 0.158175, 0.156091, 0.155534, 0.155158, 0.154059, 0.154986, 0.154240, 0.151281, 0.147984, 0.145522, 0.144673, 0.144982, 0.145872, 0.145966, 0.142622, 0.135579, 0.127803, 0.122475, 0.120125, 0.119322, 0.118558, 0.118688, 0.120439, 0.122969, 0.124822, 0.126062, 0.124912, 0.120979, 0.115511, 0.110182, 0.106200, 0.104133, 0.103784, 0.103774, 0.104025, 0.104501, 0.104374, 0.102784, 0.100728, 0.100281, 0.102853, 0.106980, 0.110910, 0.113554, 0.114089, 0.112393, 0.115169, 0.117796, 0.120591, 0.123368, 0.126789, 0.129682, 0.130048, 0.129960, 0.131686, 0.131925, 0.132075, 0.131990, 0.131127, 0.130500, 0.130417, 0.130811, 0.130500, 0.131667, 0.134658, 0.137026, 0.135740, 0.135651, 0.136674, 0.138525, 0.137981, 0.137260, 0.136971, 0.136278, 0.136492, 0.138703, 0.140693, 0.141812, 0.143000, 0.144400, 0.145738, 0.146849, 0.147681, 0.148154, 0.148208, 0.148799, 0.148453, 0.146655, 0.144083, 0.141935, 0.140910, 0.140663, 0.140317, 0.139576, 0.139085, 0.139538, 0.140782, 0.142184, 0.143592, 0.144674, 0.145266, 0.146141, 0.147330, 0.148643, 0.148993, 0.146610, 0.141542, 0.134954, 0.129157, 0.127013, 0.129824, 0.128961, 0.126252, 0.123543, 0.120290, 0.117317, 0.114531, 0.111698, 0.108539, 0.106057, 0.105315, 0.105111, 0.103216, 0.101072, 0.100039, 0.100958, 0.101903, 0.103011, 0.101415, 0.100364, 0.100957, 0.103155, 0.101095, 0.101033, 0.103212, 0.106518, 0.109880, 0.110937, 0.109078, 0.107410, 0.106398, 0.105188, 0.102765, 0.098858, 0.094417, 0.092921, 0.094720, 0.099244, 0.105278, 0.110804, 0.113675, 0.115198, 0.117481, 0.120879, 0.123319, 0.123226, 0.125891, 0.129535, 0.132724, 0.134844, 0.135630, 0.135167, 0.134074, 0.133024, 0.132055, 0.130769, 0.129860, 0.128404, 0.127849, 0.128358, 0.129468, 0.130504, 0.131103, 0.131337, 0.131472, 0.131736, 0.132178, 0.132581, 0.132629, 0.132734, 0.133117, 0.132948, 0.132095, 0.131626, 0.132295, 0.132471, 0.132241, 0.132608, 0.132869, 0.132767, 0.132301, 0.131306, 0.130539, 0.130120, 0.127419, 0.123892, 0.121513, 0.122058, 0.121440, 0.120683, 0.120085, 0.119541, 0.119231, 0.119609, 0.118592, 0.116756, 0.115217, 0.114672, 0.115479, 0.117437, 0.117781, 0.116193, 0.112745, 0.108281, 0.104567, 0.102962, 0.102724, 0.101527, 0.097948, 0.097305, 0.101408, 0.103643, 0.104672, 0.105619, 0.106976, 0.108155, 0.107751, 0.109511, 0.113050, 0.115998, 0.117511, 0.117198, 0.118065, 0.118183, 0.117703, 0.117671, 0.118392, 0.118501, 0.116373, 0.113648, 0.111341, 0.109052, 0.106954, 0.106058, 0.106234, 0.105354, 0.104042, 0.103249, 0.102986, 0.102167, 0.101913, 0.102890, 0.103904, 0.105219, 0.106726, 0.107668, 0.108304, 0.108951, 0.109734, 0.110535, 0.111184, 0.111731, 0.111185, 0.109016, 0.105901, 0.103138, 0.101838, 0.101518, 0.100876, 0.102084, 0.103653, 0.104794, 0.105718, 0.106202, 0.104866, 0.103980, 0.104230, 0.103226, 0.101905, 0.102309, 0.102190, 0.100921, 0.099449, 0.099383, 0.098613, 0.097233, 0.096455, 0.096821, 0.097543, 0.097346, 0.096081, 0.095386, 0.094767, 0.092536, 0.089988, 0.088483, 0.088427, 0.088103, 0.087941, 0.087602, 0.086466, 0.084352, 0.082365, 0.082331, 0.082238, 0.081216, 0.080791, 0.081494, 0.082389, 0.083156, 0.083680, 0.084126, 0.084797, 0.085736, 0.086631, 0.087269, 0.087388, 0.086869, 0.085856, 0.084664, 0.083594, 0.082810, 0.082292, 0.081909, 0.081504, 0.081018, 0.080622, 0.080533, 0.080674, 0.080347, 0.079468, 0.078047, 0.076966, 0.077180, 0.076046, 0.074545, 0.072943, 0.070800, 0.068469, 0.067581, 0.065956, 0.062946, 0.061321, 0.060561, 0.058489, 0.056850, 0.056047, 0.055762, 0.055707, 0.054658, 0.052108, 0.048037, 0.042976, 0.037855, 0.033807, 0.031828, 0.031910, 0.030455, 0.028942, 0.028428, 0.028795, 0.029186, 0.029006, 0.028331, 0.027583, 0.027152, 0.027285, 0.027731, 0.027669, 0.027567, 0.027908, 0.028124, 0.027830, 0.027191, 0.026330, 0.025344, 0.024746, 0.024433, 0.024078, 0.023474, 0.022590, 0.021653, 0.021010, 0.020817, 0.020950, 0.021048, 0.020704, 0.020360, 0.020075, 0.019797, 0.020122, 0.020500, 0.020332, 0.020761, 0.021500, 0.021740, 0.021807, 0.022601, 0.023678, 0.024321, 0.024102, 0.024668, 0.026028, 0.027796, 0.029203, 0.029475, 0.030537, 0.032685, 0.035259, 0.037670, 0.039479, 0.040522, 0.040788, 0.041069, 0.042134, 0.043990, 0.046169, 0.047936, 0.048866, 0.049055, 0.048866, 0.049027, 0.049290, 0.049313, 0.049086, 0.049010, 0.048919, 0.048851, 0.048825, 0.048724, 0.048404, 0.047844, 0.047317, 0.046913, 0.046612, 0.046384, 0.046311, 0.046486, 0.046885, 0.047500, 0.048504, 0.049559, 0.050599, 0.051651, 0.052572, 0.052879, 0.053210, 0.054204, 0.054910, 0.054886, 0.054621, 0.054837, 0.055066, 0.055173, 0.055691, 0.056790, 0.059004, 0.061771, 0.062583, 0.062403, 0.064027, 0.066045, 0.066774, 0.066363, 0.065575, 0.065926, 0.065719, 0.065296, 0.065541, 0.067034, 0.069319, 0.069062, 0.068111, 0.067550, 0.066461, 0.064742, 0.064062, 0.064260, 0.063943, 0.062778, 0.060904, 0.058762, 0.057115, 0.056344, 0.056368, 0.056903, 0.057183, 0.057345, 0.057656, 0.057969, 0.057746, 0.058267, 0.059376, 0.060352, 0.060552, 0.060858, 0.061509, 0.061713, 0.061760, 0.062105, 0.062463, 0.062370, 0.061941, 0.062230, 0.063051, 0.063709, 0.063450, 0.062011, 0.060979, 0.060487, 0.060640, 0.060513, 0.059438, 0.058412, 0.057953, 0.058142, 0.058352, 0.058345, 0.058321, 0.058163, 0.057309, 0.055583, 0.053732, 0.052966, 0.052825, 0.051195, 0.049207, 0.047704, 0.046867, 0.047290, 0.048185, 0.049559, 0.050573, 0.050035, 0.047821, 0.045345, 0.044613, 0.043413, 0.041266, 0.039806, 0.039571, 0.039106, 0.038611, 0.038511, 0.038387, 0.038109, 0.037795, 0.037469, 0.037164, 0.036846, 0.036367, 0.035702, 0.035106, 0.034507, 0.034242, 0.034349, 0.033631, 0.032318, 0.031617, 0.032424, 0.033722, 0.034769, 0.035811, 0.036669, 0.037292, 0.038006, 0.038556, 0.038675, 0.039672, 0.041197, 0.042568, 0.043337, 0.043605, 0.043425, 0.043065, 0.042558, 0.042242, 0.042308, 0.042517, 0.042840, 0.042882, 0.042693, 0.042498, 0.042424, 0.042332, 0.041937, 0.041119, 0.040289, 0.039842, 0.039468, 0.039611, 0.040168, 0.040758, 0.040949, 0.041260, 0.041669, 0.041603, 0.040993, 0.040373, 0.040194, 0.040325, 0.040305, 0.040548, 0.040664, 0.040742, 0.041277, 0.042000, 0.042518, 0.042791, 0.042806, 0.042799, 0.043074, 0.043577, 0.044157, 0.044684, 0.045177, 0.045664, 0.045814, 0.046131, 0.046920, 0.047895, 0.048710, 0.049011, 0.048607, 0.047832, 0.046445, 0.044779, 0.043495, 0.042449, 0.041287, 0.039870, 0.038963, 0.038801, 0.036981, 0.033873, 0.030895, 0.029324, 0.029027, 0.028824, 0.028718, 0.028836, 0.028802, 0.028820, 0.029046, 0.029263, 0.029301, 0.029262, 0.029244, 0.029093, 0.028665, 0.028301, 0.028145, 0.028235, 0.028634, 0.029465, 0.029876, 0.029707, 0.029342, 0.029494, 0.028990, 0.027326, 0.025932, 0.025647, 0.026383, 0.027395, 0.028154, 0.028468, 0.028201, 0.028171, 0.028538, 0.028909, 0.029368, 0.029977, 0.030643, 0.031237, 0.031441, 0.030970, 0.030437, 0.029909, 0.029489, 0.029220, 0.029175, 0.029765, 0.030927, 0.032167, 0.033462, 0.034751, 0.036003, 0.036786, 0.036381, 0.037240, 0.039764, 0.042951, 0.045498, 0.046546, 0.046565, 0.046686, 0.046528, 0.046409, 0.046379, 0.046383, 0.046353, 0.046547, 0.046612, 0.046575, 0.046753, 0.047237, 0.047327, 0.046817, 0.046550, 0.046746, 0.047301, 0.048066, 0.048964, 0.049899, 0.050566, 0.051124, 0.051539, 0.051461, 0.050813, 0.049886, 0.049208, 0.049200, 0.049944, 0.051211, 0.052711, 0.053357, 0.052837, 0.051272, 0.050564, 0.051544, 0.054042, 0.056737, 0.058112, 0.057817, 0.056925, 0.055740, 0.054687, 0.053760, 0.053325, 0.053513, 0.054373, 0.055204, 0.055730, 0.055803, 0.055551, 0.055135, 0.054473, 0.053258, 0.051332, 0.049046, 0.046998, 0.045500, 0.044623, 0.044574, 0.043426, 0.041068, 0.038359, 0.036586, 0.036276, 0.036770, 0.036745, 0.036765, 0.036862, 0.037316, 0.038068, 0.038811, 0.039370, 0.039683, 0.039718, 0.039579, 0.039488, 0.039685, 0.040355, 0.040805, 0.040857, 0.040512, 0.039844, 0.039011, 0.038249, 0.037659, 0.037122, 0.037176, 0.037863, 0.039042, 0.040346, 0.041230, 0.041263, 0.040475, 0.039369, 0.038507, 0.038035, 0.037714, 0.037867, 0.037494, 0.035509, 0.033516, 0.032219, 0.031948, 0.032261, 0.032373, 0.033574, 0.035357, 0.037135, 0.038095, 0.038260, 0.037918, 0.037333, 0.036778, 0.036409, 0.036595, 0.037041, 0.037578, 0.038225, 0.039013, 0.039765, 0.040269, 0.040612, 0.040981, 0.041306, 0.041285, 0.041430, 0.041420, 0.041103, 0.040682, 0.040376, 0.040275, 0.040185, 0.039970, 0.039596, 0.038954, 0.038099, 0.037267, 0.036727, 0.036614, 0.037037, 0.037957, 0.038992, 0.039563, 0.039453, 0.038996, 0.038610, 0.038402, 0.038284, 0.038223, 0.038321, 0.038610, 0.038227, 0.037169, 0.036381, 0.036049, 0.036160, 0.036590, 0.037030, 0.037076, 0.036538, 0.036088, 0.036174, 0.036355, 0.036176, 0.036468, 0.036025, 0.035135, 0.034288, 0.033739, 0.033804, 0.033147, 0.031925, 0.030821, 0.030310, 0.030092, 0.029641, 0.029450, 0.029586, 0.029966, 0.030040, 0.029838, 0.029365, 0.028645, 0.027843, 0.027197, 0.026643, 0.026492, 0.026943, 0.027878, 0.029286, 0.030379, 0.031190, 0.031732, 0.031976, 0.032065, 0.032153, 0.032247, 0.032281, 0.032112, 0.032102, 0.032594, 0.033482, 0.034369, 0.034948, 0.035044, 0.034695, 0.034241, 0.034128, 0.034463, 0.034887, 0.034999, 0.034973, 0.035227, 0.035465, 0.035583, 0.035773, 0.036234, 0.036641, 0.036125, 0.036163, 0.036720, 0.037243, 0.037240, 0.036748, 0.037186, 0.038014, 0.039090, 0.040393, 0.041574, 0.042193, 0.042197, 0.041907, 0.041580, 0.041743, 0.042051, 0.042264, 0.042202, 0.041785, 0.041245, 0.040971, 0.041112, 0.041005, 0.040767, 0.040608, 0.040497, 0.040334, 0.040109, 0.040007, 0.039907, 0.039753, 0.039755, 0.039531, 0.038749, 0.037614, 0.036344, 0.035027, 0.033772, 0.032774, 0.032140, 0.031851, 0.031747, 0.031687, 0.031692, 0.031897, 0.032009, 0.031675, 0.030806, 0.030135, 0.029745, 0.029353, 0.028683, 0.027695, 0.026549, 0.025633, 0.025280, 0.025565, 0.025968, 0.025860, 0.025509, 0.025132, 0.024696, 0.024181, 0.023836, 0.023782, 0.022960, 0.021823, 0.020904, 0.020558, 0.020764, 0.020237, 0.019557, 0.018735, 0.017742, 0.016752, 0.016050, 0.015622, 0.015531, 0.015776, 0.015921, 0.015673, 0.015285, 0.015143, 0.015418, 0.015935, 0.016427, 0.016724, 0.016629, 0.017001, 0.017631, 0.018188, 0.018657, 0.019221, 0.019838, 0.020496, 0.020926, 0.020847, 0.021103, 0.021357, 0.021242, 0.021436, 0.021578, 0.021581, 0.021730, 0.021751, 0.021767, 0.021938, 0.022534, 0.023475, 0.024587, 0.025709, 0.026749, 0.027734, 0.028215, 0.028402, 0.028483, 0.028255, 0.028679, 0.029609, 0.030241, 0.030246, 0.029924, 0.029891, 0.030606, 0.031943, 0.033241, 0.033937, 0.034131, 0.034255, 0.034452, 0.034373, 0.034544, 0.034763, 0.034697, 0.034644, 0.035021, 0.034965, 0.034355, 0.033781, 0.033386, 0.033244, 0.033217, 0.033343, 0.033529, 0.033625, 0.033483, 0.033165, 0.032931, 0.032618, 0.032247, 0.031925, 0.031806, 0.032118, 0.031846, 0.030994, 0.030449, 0.030198, 0.029913, 0.029371, 0.028641, 0.028200, 0.028544, 0.028721, 0.028774, 0.028927, 0.028673, 0.028610, 0.028798, 0.028757, 0.028725, 0.028852, 0.028865, 0.028421, 0.027518, 0.026314, 0.025058, 0.024023, 0.023391, 0.023121, 0.022993, 0.022969, 0.023420, 0.023405, 0.022927, 0.022499, 0.022302, 0.022107, 0.021708, 0.021023, 0.020097, 0.019344, 0.019171, 0.019449, 0.019686, 0.019681, 0.019626, 0.019225, 0.018688, 0.018459, 0.018354, 0.018005, 0.017712, 0.017920, 0.018506, 0.019422, 0.020355, 0.021255, 0.021727, 0.021710, 0.021325, 0.021357, 0.021600, 0.021533, 0.021512, 0.021936, 0.022781, 0.023659, 0.024353, 0.025051, 0.025956, 0.026414, 0.026369, 0.026172, 0.026307, 0.026633, 0.026911, 0.026933, 0.026895, 0.027166, 0.027808, 0.028467, 0.028750, 0.028487, 0.028856, 0.029596, 0.029886, 0.029688, 0.029709, 0.029660, 0.029543, 0.029468, 0.029316, 0.029081, 0.028761, 0.028362, 0.027896, 0.027367, 0.026889, 0.026643, 0.026600, 0.026528, 0.026608, 0.026816, 0.026911, 0.026795, 0.026394, 0.025805, 0.025411, 0.025193, 0.025123, 0.025083, 0.024816, 0.024609, 0.024596, 0.024599, 0.024594, 0.024606, 0.024652, 0.024377, 0.023680, 0.022790, 0.022017, 0.021552, 0.021423, 0.021532, 0.021376, 0.021337, 0.021342, 0.021104, 0.020412, 0.019401, 0.018438, 0.017656, 0.016836, 0.015972, 0.015382, 0.015136, 0.015077, 0.014861, 0.014634, 0.014453, 0.014258, 0.013849, 0.013209, 0.012518, 0.011851, 0.011408, 0.011463, 0.011058, 0.010450, 0.009998, 0.010153, 0.010088, 0.009977, 0.010039, 0.009962, 0.009859, 0.009767, 0.009724, 0.009785, 0.009915, 0.009979, 0.009986, 0.010006, 0.009948, 0.009910, 0.009805, 0.009526, 0.009277, 0.009067, 0.009000, 0.009265, 0.009498, 0.009768, 0.010224, 0.010826, 0.011290, 0.011313, 0.011475, 0.011977, 0.012543, 0.013134, 0.013473, 0.013723, 0.014070, 0.014448, 0.014610, 0.014412, 0.014073, 0.013956, 0.013948, 0.013769, 0.013653, 0.013669, 0.013675, 0.013574, 0.013522, 0.013636, 0.013828, 0.013882, 0.013804, 0.013939, 0.014181, 0.014214, 0.014126, 0.014108, 0.014249, 0.014791, 0.015671, 0.016517, 0.017131, 0.017343, 0.017429, 0.017589, 0.017626, 0.017661, 0.017743, 0.017974, 0.018292, 0.018271, 0.018367, 0.018555, 0.018730, 0.018922, 0.019117, 0.019267, 0.019398, 0.019422, 0.019242, 0.019062, 0.019031, 0.019096, 0.019238, 0.019303, 0.019348, 0.019384, 0.019182, 0.018792, 0.018268, 0.017647, 0.017130, 0.016745, 0.016723, 0.016720, 0.016532, 0.016170, 0.015611, 0.015086, 0.014649, 0.014267, 0.013953, 0.013696, 0.013664, 0.013631, 0.013763, 0.014013, 0.014183, 0.014217, 0.014218, 0.014198, 0.014132, 0.013929, 0.013610, 0.013415, 0.013454, 0.013469, 0.013343, 0.013093, 0.013054, 0.013054, 0.012894, 0.012643, 0.012119, 0.011337, 0.010535, 0.010017, 0.009987, 0.010064, 0.009919, 0.009783, 0.009774, 0.009552, 0.009180, 0.008906, 0.008871, 0.008739, 0.008644, 0.008597, 0.008450, 0.008200, 0.007996, 0.007890, 0.007825, 0.007832, 0.008026, 0.008341, 0.008543, 0.008531, 0.008405, 0.008295, 0.008202, 0.008076, 0.008015, 0.008024, 0.008090, 0.008116, 0.008237, 0.008332, 0.008055, 0.007765, 0.007620, 0.007686, 0.007719, 0.007621, 0.007465, 0.007334, 0.007308, 0.007299, 0.007351, 0.007164, 0.006891, 0.006803, 0.006934, 0.007047, 0.007067, 0.007125, 0.007336, 0.007616, 0.007787, 0.007877, 0.008026, 0.008081, 0.008102, 0.008075, 0.008088, 0.008120, 0.008064, 0.008016, 0.007997, 0.007995, 0.007950, 0.007778, 0.007566, 0.007441, 0.007510, 0.007647, 0.007758, 0.007874, 0.007962, 0.008061, 0.008178, 0.008100, 0.008021, 0.008026, 0.008041, 0.008035, 0.008080, 0.008180, 0.008247, 0.008359, 0.008762, 0.009516, 0.010388, 0.011129, 0.011708, 0.012251, 0.012844, 0.013341, 0.013752, 0.014140, 0.014426, 0.014495, 0.014404, 0.014408, 0.014378, 0.014334, 0.014384, 0.014558, 0.014855, 0.015220, 0.015575, 0.015898, 0.016188, 0.016490, 0.016705, 0.016758, 0.016702, 0.016619, 0.016610, 0.016736, 0.016850, 0.016765, 0.016553, 0.016382, 0.016296, 0.016326, 0.016489, 0.016635, 0.016647, 0.016677, 0.016881, 0.017182, 0.017433, 0.017547, 0.017527, 0.017494, 0.017572, 0.017691, 0.017738, 0.017665, 0.017621, 0.017705, 0.017814, 0.017786, 0.017675, 0.017670, 0.017764, 0.017784, 0.017691, 0.017543, 0.017365, 0.017261, 0.017253, 0.017276, 0.017059, 0.016361, 0.015316, 0.014318, 0.013577, 0.013010, 0.012467, 0.011939, 0.011508, 0.011170, 0.010822, 0.010405, 0.010189, 0.010164, 0.010159, 0.010115, 0.010168, 0.010200, 0.010060, 0.009749, 0.009400, 0.009146, 0.008983, 0.008806, 0.008617, 0.008489, 0.008378, 0.008341, 0.008264, 0.008178, 0.008082, 0.007930, 0.007750, 0.007639, 0.007531, 0.007468, 0.007265, 0.007072, 0.007004, 0.007023, 0.006911, 0.006688, 0.006376, 0.006248, 0.006316, 0.006553, 0.006873, 0.007174, 0.007446, 0.007658, 0.007658, 0.007752, 0.007927, 0.008191, 0.008628, 0.009257, 0.010020, 0.010886, 0.011578, 0.011910, 0.011931, 0.012074, 0.012247, 0.012342, 0.012312, 0.012217, 0.012192, 0.012286, 0.012381, 0.012346, 0.012431, 0.012486, 0.012482, 0.012465, 0.012348, 0.012253, 0.012308, 0.012308, 0.012288, 0.012258, 0.012276, 0.012161, 0.012133, 0.012381, 0.012935, 0.013608, 0.014160, 0.014494, 0.014643, 0.014650, 0.014594, 0.014587, 0.014614, 0.014853, 0.015388, 0.016186, 0.017202, 0.018332, 0.019357, 0.020196, 0.020616, 0.020665, 0.020793, 0.020923, 0.021079, 0.021397, 0.021734, 0.022060, 0.022128, 0.021933, 0.021550, 0.021148, 0.020769, 0.020605, 0.020768, 0.021245, 0.021457, 0.021330, 0.020990, 0.020506, 0.019892, 0.019209, 0.018485, 0.017868, 0.017465, 0.017539, 0.017710, 0.018003, 0.018536, 0.019296, 0.020123, 0.020816, 0.021350, 0.021939, 0.022762, 0.023456, 0.023986, 0.024272, 0.024218, 0.024541, 0.025576, 0.027386, 0.029481, 0.030791, 0.030950, 0.032097, 0.033024, 0.032887, 0.032699, 0.032284, 0.032154, 0.031588, 0.032048, 0.033711, 0.036353, 0.039838, 0.043503, 0.045966, 0.046300, 0.046678, 0.047314, 0.047624, 0.047439, 0.046661, 0.046112, 0.045922, 0.046157, 0.046891, 0.047725, 0.048324, 0.048688, 0.049025, 0.049289, 0.049285, 0.049294, 0.049554, 0.049558, 0.049962, 0.050677, 0.051505, 0.052415, 0.053487, 0.054727, 0.056117, 0.057747, 0.059622, 0.061531, 0.063269, 0.064518, 0.064996, 0.065377, 0.066393, 0.067567, 0.068644, 0.069911, 0.071669, 0.073625, 0.075174, 0.076118, 0.076753, 0.077354, 0.077904, 0.078359, 0.078929, 0.079165, 0.078554, 0.076727, 0.075004, 0.074350, 0.074722, 0.073680, 0.072840, 0.072819, 0.072754, 0.072746, 0.072268, 0.072346, 0.071792, 0.070314, 0.067903, 0.064765, 0.061846, 0.060465, 0.061139, 0.061299, 0.060838, 0.060777, 0.061501, 0.062827, 0.063304, 0.063677, 0.065418, 0.066849, 0.067252, 0.066578, 0.066496, 0.066343, 0.065916, 0.065661, 0.065571, 0.065408, 0.065586, 0.065316, 0.064376, 0.063274, 0.062167, 0.061124, 0.060033, 0.058645, 0.057072, 0.055395, 0.053387, 0.051573, 0.050478, 0.050247, 0.049837, 0.048558, 0.046931, 0.045094, 0.043501, 0.042372, 0.041960, 0.042228, 0.042636, 0.042617, 0.042261, 0.042252, 0.042985, 0.043963, 0.044098, 0.044629, 0.047180, 0.049946, 0.052182, 0.054193, 0.056497, 0.058853, 0.060991, 0.062105, 0.061860, 0.062942, 0.064540, 0.065715, 0.066312, 0.066799, 0.067349, 0.067432, 0.066423, 0.065884, 0.065938, 0.065421, 0.064934, 0.065327, 0.065978, 0.066765, 0.066931, 0.065569, 0.064102, 0.063523, 0.063654, 0.063717, 0.064526, 0.065789, 0.066842, 0.067371, 0.067624, 0.067938, 0.068655, 0.069902, 0.071127, 0.071827, 0.071402, 0.072087, 0.073569, 0.074759, 0.074907, 0.075439, 0.076700, 0.078144, 0.079370, 0.080187, 0.081049, 0.082756, 0.085561, 0.087878, 0.088097, 0.085875, 0.084717, 0.084911, 0.086562, 0.089288, 0.092171, 0.094194, 0.094980, 0.095300, 0.094520, 0.092002, 0.089223, 0.087675, 0.087844, 0.088917, 0.089756, 0.089916, 0.089721, 0.089781, 0.089644, 0.089768, 0.090664, 0.092363, 0.094265, 0.095669, 0.096544, 0.097504, 0.097428, 0.096417, 0.096270, 0.096304, 0.095453, 0.094836, 0.095602, 0.097805, 0.100401, 0.102364, 0.103623, 0.104814, 0.105111, 0.104444, 0.103723, 0.103455, 0.103316, 0.103651, 0.105694, 0.109405, 0.113924, 0.117895, 0.120618, 0.122500, 0.121881, 0.120650, 0.120252, 0.120934, 0.121311, 0.120668, 0.119417, 0.118208, 0.117507, 0.117083, 0.116292, 0.114938, 0.113693, 0.113605, 0.115148, 0.115383, 0.114397, 0.112030, 0.108284, 0.104786, 0.101919, 0.099848, 0.099084, 0.099565, 0.100049, 0.099646, 0.099017, 0.097989, 0.096856, 0.095795, 0.094550, 0.093778, 0.094877, 0.095179, 0.094905, 0.094570, 0.094384, 0.094340, 0.094474, 0.094751, 0.094911, 0.094425, 0.095926, 0.099481, 0.103991, 0.107619, 0.108815, 0.107460, 0.104608, 0.101397, 0.098655, 0.096936, 0.095917, 0.095074, 0.094537, 0.093872, 0.093286, 0.093180, 0.092740, 0.090325, 0.085724, 0.080252, 0.075404, 0.072190, 0.070779, 0.070724, 0.070442, 0.069894, 0.069574, 0.069397, 0.069364, 0.069534, 0.069642, 0.069644, 0.069774, 0.068850, 0.068479, 0.068695, 0.068709, 0.067964, 0.066651, 0.065499, 0.065151, 0.065646, 0.065292, 0.065207, 0.066261, 0.067432, 0.067396, 0.067303, 0.068326, 0.068406, 0.067053, 0.064684, 0.062695, 0.062230, 0.062972, 0.063189, 0.063198, 0.062719, 0.061208, 0.058640, 0.056503, 0.054864, 0.053598, 0.052604, 0.052430, 0.051077, 0.048339, 0.044994, 0.042380, 0.041348, 0.041366, 0.041188, 0.042059, 0.043204, 0.043752, 0.043965, 0.044552, 0.045071, 0.045117, 0.045811, 0.047473, 0.050137, 0.053573, 0.057342, 0.060351, 0.062131, 0.062751, 0.062586, 0.062216, 0.062164, 0.062204, 0.063374, 0.066436, 0.071032, 0.076253, 0.081496, 0.086019, 0.089038, 0.091824, 0.093417, 0.094079, 0.094123, 0.093712, 0.093811, 0.093941, 0.093687, 0.093418, 0.093305, 0.093155, 0.092946, 0.093103, 0.094112, 0.095197, 0.095659, 0.096190, 0.097036, 0.098260, 0.099639, 0.100976, 0.101839, 0.102198, 0.102300, 0.102225, 0.101925, 0.102383, 0.102776, 0.102954, 0.103140, 0.103726, 0.104553, 0.104810, 0.103653, 0.102052, 0.100577, 0.099500, 0.098905, 0.098944, 0.098549, 0.098232, 0.098302, 0.098192, 0.098011, 0.099086, 0.101451, 0.103003, 0.102929, 0.101241, 0.098187, 0.094657, 0.092529, 0.092300, 0.093599, 0.095227, 0.095896, 0.096305, 0.097005, 0.096288, 0.093576, 0.089315, 0.084494, 0.080245, 0.077313, 0.075526, 0.073806, 0.071191, 0.069280, 0.068232, 0.068017, 0.068024, 0.068641, 0.069718, 0.070502, 0.070895, 0.070513, 0.069668, 0.068518, 0.067694, 0.067601, 0.068278, 0.069574, 0.071002, 0.071723, 0.071141, 0.069500, 0.067581, 0.065960, 0.064816, 0.064198, 0.064160, 0.063679, 0.062964, 0.062326, 0.061777, 0.061148, 0.060461, 0.059961, 0.059905, 0.059602, 0.059209, 0.059126, 0.059539, 0.060229, 0.060211, 0.059575, 0.058649, 0.058123, 0.057755, 0.056264, 0.054367, 0.052994, 0.052499, 0.052780, 0.053841, 0.055254, 0.055351, 0.053471, 0.052277, 0.052774, 0.055102, 0.057500, 0.058418, 0.058207, 0.057474, 0.056766, 0.056066, 0.054917, 0.053182, 0.051370, 0.050296, 0.050631, 0.050823, 0.051242, 0.052076, 0.052639, 0.052485, 0.051887, 0.051436, 0.051582, 0.052062, 0.052170, 0.051981, 0.051360, 0.050143, 0.048256, 0.045822, 0.043261, 0.041452, 0.040669, 0.040616, 0.040740, 0.040646, 0.040496, 0.040441, 0.040731, 0.041394, 0.041785, 0.041983, 0.042246, 0.042855, 0.043741, 0.044478, 0.044746, 0.044692, 0.044531, 0.044153, 0.043729, 0.043489, 0.043509, 0.043659, 0.043765, 0.043738, 0.043622, 0.043672, 0.043738, 0.043556, 0.043080, 0.042296, 0.041097, 0.039602, 0.038343, 0.038410, 0.037757, 0.036023, 0.033514, 0.030930, 0.029109, 0.028319, 0.028042, 0.027693, 0.027292, 0.027057, 0.026988, 0.027040, 0.027122, 0.026848, 0.026144, 0.025176, 0.024142, 0.023380, 0.022806, 0.022252, 0.021714, 0.021274, 0.020942, 0.020654, 0.020374, 0.020233, 0.020039, 0.019918, 0.020385, 0.021516, 0.022512, 0.022781, 0.022784, 0.023365, 0.024012, 0.024115, 0.023691, 0.023317, 0.023035, 0.023037, 0.023553, 0.024432, 0.025059, 0.024926, 0.024202, 0.025025, 0.026605, 0.027986, 0.028890, 0.029443, 0.029989, 0.030642, 0.031300, 0.031921, 0.032481, 0.032860, 0.032993, 0.032939, 0.032775, 0.032602, 0.032480, 0.032182, 0.032861, 0.034929, 0.037841, 0.040802, 0.043226, 0.044907, 0.045776, 0.045707, 0.046203, 0.047144, 0.048129, 0.048901, 0.049422, 0.049677, 0.049624, 0.049946, 0.050685, 0.051444, 0.051622, 0.052155, 0.052980, 0.053730, 0.054439, 0.055210, 0.055939, 0.056492, 0.056884, 0.057229, 0.057500, 0.057909, 0.058282, 0.058107, 0.057348, 0.056513, 0.056239, 0.056188, 0.055545, 0.054999, 0.055025, 0.055618, 0.056332, 0.057176, 0.057655, 0.056965, 0.056011, 0.055528, 0.055308, 0.055296, 0.054463, 0.053060, 0.051557, 0.050569, 0.050017, 0.049368, 0.048308, 0.047466, 0.047228, 0.047298, 0.047262, 0.046926, 0.046442, 0.045985, 0.045355, 0.045307, 0.046538, 0.047167, 0.045974, 0.042993, 0.039693, 0.037288, 0.036450, 0.036897, 0.037835, 0.037451, 0.036405, 0.035600, 0.035184, 0.034944, 0.034923, 0.035304, 0.035432, 0.035112, 0.034538, 0.034285, 0.033906, 0.033161, 0.032502, 0.032020, 0.031481, 0.030752, 0.030034, 0.029693, 0.029885, 0.030449, 0.031178, 0.031974, 0.032785, 0.033550, 0.034270, 0.034997, 0.035779, 0.036704, 0.037548, 0.037913, 0.037395, 0.037241, 0.037224, 0.036980, 0.036746, 0.036528, 0.035947, 0.035499, 0.035526, 0.035761, 0.036289, 0.037076, 0.037730, 0.038178, 0.038653, 0.039429, 0.040218, 0.041002, 0.041989, 0.043018, 0.043700, 0.043697, 0.043843, 0.044454, 0.044780, 0.044456, 0.044219, 0.044712, 0.045566, 0.045418, 0.045484, 0.045225, 0.044498, 0.044140, 0.044719, 0.045747, 0.046430, 0.046646, 0.046866, 0.047306, 0.047577, 0.047320, 0.046793, 0.046783, 0.047299, 0.047984, 0.049018, 0.050464, 0.052264, 0.054324, 0.056529, 0.058522, 0.059745, 0.060014, 0.059771, 0.059583, 0.059610, 0.059543, 0.058966, 0.058193, 0.058250, 0.059040, 0.060524, 0.062382, 0.064166, 0.065733, 0.065637, 0.064526, 0.063795, 0.064167, 0.064606, 0.064773, 0.064689, 0.064818, 0.064648, 0.064070, 0.063233, 0.062609, 0.062322, 0.062252, 0.062031, 0.061269, 0.059921, 0.058408, 0.057293, 0.056800, 0.056692, 0.056769, 0.056930, 0.057011, 0.056677, 0.055673, 0.054337, 0.053376, 0.053343, 0.052791, 0.052049, 0.051649, 0.051479, 0.051105, 0.050518, 0.050161, 0.050294, 0.050652, 0.050777, 0.050453, 0.050475, 0.051438, 0.052250, 0.052425, 0.051798, 0.050686, 0.049433, 0.047983, 0.046078, 0.043784, 0.041820, 0.040443, 0.039680, 0.039311, 0.038910, 0.038243, 0.037569, 0.037408, 0.037501, 0.036687, 0.034958, 0.032567, 0.030281, 0.028944, 0.028870, 0.029775, 0.031122, 0.032517, 0.033922, 0.035413, 0.036712, 0.037079, 0.038515, 0.042118, 0.047244, 0.052508, 0.056326, 0.058130, 0.058336, 0.057930, 0.057692, 0.057796, 0.058083, 0.058400, 0.058701, 0.059024, 0.058690, 0.058513, 0.058765, 0.059577, 0.060628, 0.061170, 0.061254, 0.061635, 0.061502, 0.061701, 0.062356, 0.062847, 0.062526, 0.062606, 0.062465, 0.062383, 0.063047, 0.063829, 0.064656, 0.065249, 0.065270, 0.065224, 0.065364, 0.065438, 0.065803, 0.066568, 0.067367, 0.068179, 0.069004, 0.069434, 0.069551, 0.069627, 0.069570, 0.069091, 0.068503, 0.068279, 0.068360, 0.068620, 0.069076, 0.069618, 0.069713, 0.069481, 0.068833, 0.067558, 0.066000, 0.064748, 0.064058, 0.063657, 0.063082, 0.062174, 0.061925, 0.061636, 0.059446, 0.055501, 0.051004, 0.047446, 0.045672, 0.045569, 0.046430, 0.047415, 0.047850, 0.047502, 0.047104, 0.046706, 0.046465, 0.046339, 0.045645, 0.044988, 0.044838, 0.045357, 0.046462, 0.047628, 0.048203, 0.048896, 0.048814, 0.047761, 0.046934, 0.047006, 0.046582, 0.046193, 0.045583, 0.044057, 0.042597, 0.041687, 0.041082, 0.040378, 0.039519, 0.038773, 0.038493, 0.038126, 0.037318, 0.036512, 0.035997, 0.035828, 0.035980, 0.036406, 0.036801, 0.037141, 0.037707, 0.038158, 0.037827, 0.038056, 0.038827, 0.039545, 0.039752, 0.039674, 0.039577, 0.039390, 0.039564, 0.040050, 0.040115, 0.039302, 0.038127, 0.037221, 0.037723, 0.039823, 0.041341, 0.042150, 0.042301, 0.042163, 0.042215, 0.042563, 0.042757, 0.042137, 0.041653, 0.042538, 0.044162, 0.045284, 0.045939, 0.046282, 0.046372, 0.046531, 0.046525, 0.045833, 0.044112, 0.043169, 0.042987, 0.042773, 0.042348, 0.042226, 0.042732, 0.043043, 0.042790, 0.043127, 0.043788, 0.044390, 0.044968, 0.045438, 0.045666, 0.045606, 0.045468, 0.045492, 0.045696, 0.045998, 0.046194, 0.046194, 0.046042, 0.045750, 0.045227, 0.044637, 0.044226, 0.043735, 0.043534, 0.043520, 0.043750, 0.044446, 0.044296, 0.043546, 0.043124, 0.043738, 0.045064, 0.045632, 0.045468, 0.045828, 0.046055, 0.045797, 0.046749, 0.048099, 0.049191, 0.049302, 0.048116, 0.045743, 0.043954, 0.044960, 0.048252, 0.051794, 0.053785, 0.054064, 0.053727, 0.053713, 0.053240, 0.052764, 0.052806, 0.053699, 0.055372, 0.057097, 0.057770, 0.057470, 0.057602, 0.058204, 0.057933, 0.057155, 0.056459, 0.056283, 0.056287, 0.055952, 0.055437, 0.055686, 0.055835, 0.056329, 0.057711, 0.060049, 0.062526, 0.063869, 0.063710, 0.063903, 0.064238, 0.065227, 0.065485, 0.065904, 0.066502, 0.066066, 0.066218, 0.066125, 0.066778, 0.067566, 0.067940, 0.067706, 0.067136, 0.067226, 0.067433, 0.067221, 0.068739, 0.070568, 0.071106, 0.070337, 0.069721, 0.070102, 0.070448, 0.071222, 0.072542, 0.072124, 0.070739, 0.069700, 0.068494, 0.067761, 0.067978, 0.067330, 0.065715, 0.063580, 0.061584, 0.060394, 0.060323, 0.061526, 0.063076, 0.065077, 0.067362, 0.069361, 0.070663, 0.071489, 0.072576, 0.074567, 0.076857, 0.077920, 0.077805, 0.078421, 0.080666, 0.083976, 0.087631, 0.091855, 0.097255, 0.103250, 0.107607, 0.108825, 0.108356, 0.108111, 0.106553, 0.103968, 0.102302, 0.102793, 0.103208, 0.103291, 0.102369, 0.101917, 0.101348, 0.101089, 0.102630, 0.104695, 0.108464, 0.112859, 0.118079, 0.124482, 0.131451, 0.138724, 0.145286, 0.151037, 0.155547, 0.156300, 0.155055, 0.153344, 0.155405, 0.163123, 0.175778, 0.190218, 0.202355, 0.209388, 0.211041, 0.212866, 0.215512, 0.216994, 0.217497, 0.219930, 0.223644, 0.225733, 0.225631, 0.224859, 0.225615, 0.228847, 0.233300, 0.236532, 0.237143, 0.235921, 0.234392, 0.232677, 0.229837, 0.228784, 0.228786, 0.228934, 0.229118, 0.230237, 0.231233, 0.231638, 0.232100, 0.232790, 0.233558, 0.234381, 0.235493, 0.237368, 0.240622, 0.243942, 0.245579, 0.246554, 0.246570, 0.247684, 0.249627, 0.252682, 0.257546, 0.263481, 0.268027, 0.269210, 0.269646, 0.269503, 0.267144, 0.263675, 0.258942, 0.255199, 0.252643, 0.250159, 0.246068, 0.239217, 0.235131, 0.235201, 0.237353, 0.238643, 0.238590, 0.236514, 0.229664, 0.220328, 0.209932, 0.199653, 0.192335, 0.195824, 0.202243, 0.207631, 0.212724, 0.215628, 0.213299, 0.210471, 0.208905, 0.208583, 0.209335, 0.210756, 0.212451, 0.214247, 0.215810, 0.216237, 0.214770, 0.213721, 0.212760, 0.213328, 0.212408, 0.209999, 0.207574, 0.206440, 0.206240, 0.206125, 0.205382, 0.204320, 0.203895, 0.203798, 0.201840, 0.196369, 0.190883, 0.186848, 0.183379, 0.180513, 0.180681, 0.185991, 0.191223, 0.194099, 0.195019, 0.193791, 0.190088, 0.185535, 0.185679, 0.186256, 0.186211, 0.187007, 0.187482, 0.187845, 0.186284, 0.183126, 0.179548, 0.177209, 0.178093, 0.178259, 0.177230, 0.176353, 0.177169, 0.180013, 0.181781, 0.182482, 0.179948, 0.176457, 0.175442, 0.176133, 0.170946, 0.165440, 0.160634, 0.157202, 0.156018, 0.157060, 0.157019, 0.155989, 0.155540, 0.155405, 0.153267, 0.147291, 0.142700, 0.140401, 0.140650, 0.142822, 0.143217, 0.144190, 0.148249, 0.155041, 0.163628, 0.171210, 0.174905, 0.174178, 0.173883, 0.173632, 0.171990, 0.168579, 0.164373, 0.161491, 0.161787, 0.162850, 0.164094, 0.166082, 0.168011, 0.167386, 0.162409, 0.156292, 0.152430, 0.150006, 0.148220, 0.147523, 0.147922, 0.147491, 0.147493, 0.147300, 0.146751, 0.146600, 0.147109, 0.147406, 0.146747, 0.145713, 0.145182, 0.144987, 0.144005, 0.141823, 0.139134, 0.136408, 0.133518, 0.132608, 0.133425, 0.134962, 0.135652, 0.134523, 0.133152, 0.134247, 0.133096, 0.130363, 0.127387, 0.124815, 0.123979, 0.125125, 0.127098, 0.127993, 0.127479, 0.127211, 0.128394, 0.126280, 0.122380, 0.119190, 0.117484, 0.116681, 0.116131, 0.112521, 0.105298, 0.096545, 0.089667, 0.086995, 0.088451, 0.088731, 0.088700, 0.090226, 0.093087, 0.095777, 0.097328, 0.097761, 0.097401, 0.096646, 0.096099, 0.096322, 0.097521, 0.099501, 0.100810, 0.099365, 0.099431, 0.101430, 0.105329, 0.110537, 0.113770, 0.114579, 0.114974, 0.116124, 0.117742, 0.119480, 0.121847, 0.125420, 0.129787, 0.133958, 0.137086, 0.138929, 0.139439, 0.138710, 0.138169, 0.139097, 0.138993, 0.138142, 0.137397, 0.137659, 0.139608, 0.142748, 0.144925, 0.147133, 0.149771, 0.152050, 0.153278, 0.153021, 0.152509, 0.152695, 0.153335, 0.153316, 0.152120, 0.150998, 0.150984, 0.151981, 0.153134, 0.154034, 0.155119, 0.154810, 0.154112, 0.154559, 0.155448, 0.155740, 0.155390, 0.155336, 0.156067, 0.156460, 0.154596, 0.152280, 0.151556, 0.152210, 0.153162, 0.152790, 0.152313, 0.152514, 0.151089, 0.148393, 0.146700, 0.146124, 0.147716, 0.148312, 0.147089, 0.142710, 0.138164, 0.135975, 0.134253, 0.133693, 0.133759, 0.132994, 0.131374, 0.129019, 0.125464, 0.121870, 0.119368, 0.118246, 0.118981, 0.121510, 0.124918, 0.127500, 0.128606, 0.128947, 0.127914, 0.127188, 0.127941, 0.129216, 0.130662, 0.132527, 0.134546, 0.135927, 0.136173, 0.135060, 0.136351, 0.137930, 0.138502, 0.138511, 0.138634, 0.138822, 0.138724, 0.138152, 0.136647, 0.135259, 0.133849, 0.132906, 0.134867, 0.138215, 0.140679, 0.141409, 0.140705, 0.139316, 0.137240, 0.135916, 0.136762, 0.139893, 0.141671, 0.140201, 0.136992, 0.133686, 0.133047, 0.132954, 0.131006, 0.130558, 0.131139, 0.130023, 0.129756, 0.128700, 0.126264, 0.124895, 0.125971, 0.127113, 0.126987, 0.128333, 0.130297, 0.132332, 0.134392, 0.135230, 0.134420, 0.134534, 0.134004, 0.132150, 0.128949, 0.125708, 0.123127, 0.122314, 0.124131, 0.127961, 0.132176, 0.136239, 0.138455, 0.138356, 0.136790, 0.133119, 0.128122, 0.123681, 0.119792, 0.117219, 0.117470, 0.115998, 0.113809, 0.114403, 0.117412, 0.120707, 0.122930, 0.123947, 0.124656, 0.125864, 0.126298, 0.126149, 0.125638, 0.123190, 0.120235, 0.118559, 0.118440, 0.117937, 0.120720, 0.125125, 0.126761, 0.124022, 0.123447, 0.124411, 0.125255, 0.124874, 0.125109, 0.126283, 0.130698, 0.138026, 0.143850, 0.146019, 0.146831, 0.149753, 0.155406, 0.164744, 0.176443, 0.187800, 0.194754, 0.196300, 0.195239, 0.194239, 0.193305, 0.191770, 0.190539, 0.190853, 0.190997, 0.191005, 0.191240, 0.192149, 0.192376, 0.191950, 0.191035, 0.189513, 0.187481, 0.185511, 0.184032, 0.182752, 0.181359, 0.180546, 0.181397, 0.182387, 0.181531, 0.180356, 0.180079, 0.179880, 0.179346, 0.178765, 0.175318, 0.172146, 0.171841, 0.174714, 0.178918, 0.182423, 0.184132, 0.183942, 0.183966, 0.185097, 0.185780, 0.185585, 0.185450, 0.186961, 0.191463, 0.192749, 0.190107, 0.188185, 0.189810, 0.187138, 0.184191, 0.183570, 0.185185, 0.187001, 0.187347, 0.183953, 0.177618, 0.171420, 0.171129, 0.174824, 0.175449, 0.172383, 0.164555, 0.151535, 0.139420, 0.134080, 0.135048, 0.137160, 0.136844, 0.135540, 0.136335, 0.139433, 0.142128, 0.142103, 0.143959, 0.146362, 0.146658, 0.146067, 0.145825, 0.144349, 0.141201, 0.137619, 0.134399, 0.132010, 0.129832, 0.130475, 0.133274, 0.136191, 0.137554, 0.137267, 0.137956, 0.139440, 0.141368, 0.143779, 0.145835, 0.147934, 0.148093, 0.146045, 0.142630, 0.139113, 0.136462, 0.135138, 0.135104, 0.134612, 0.133489, 0.134048, 0.136452, 0.138732, 0.138907, 0.136785, 0.134014, 0.132488, 0.132537, 0.132528, 0.133428, 0.132749, 0.131097, 0.130736, 0.131600, 0.132118, 0.131330, 0.130368, 0.131153, 0.130052, 0.127527, 0.124682, 0.121604, 0.122875, 0.128688, 0.134541, 0.137566, 0.138830, 0.139772, 0.139519, 0.139716, 0.140379, 0.139877, 0.139684, 0.142391, 0.144030, 0.145069, 0.148063, 0.152117, 0.154578, 0.154750, 0.156307, 0.157227, 0.158775, 0.162995, 0.165491, 0.167041, 0.171495, 0.174466, 0.173631, 0.175242, 0.176750, 0.175758, 0.173848, 0.171574, 0.169232, 0.167476, 0.166749, 0.167171, 0.168112, 0.168567, 0.168620, 0.169854, 0.173381, 0.177681, 0.179481, 0.179448, 0.178993, 0.177431, 0.176204, 0.176614, 0.178476, 0.181020, 0.181200, 0.179993, 0.180925, 0.182849, 0.183102, 0.182797, 0.181492, 0.180580, 0.181903, 0.184644, 0.186060, 0.186291, 0.186031, 0.186142, 0.187230, 0.184460, 0.178215, 0.170836, 0.164158, 0.158609, 0.155476, 0.155294, 0.154264, 0.151135, 0.148423, 0.146670, 0.144792, 0.142173, 0.138878, 0.134639, 0.130185, 0.126656, 0.125848, 0.124320, 0.123066, 0.120740, 0.115652, 0.113058, 0.109070, 0.099896, 0.091948, 0.089788, 0.087672, 0.085244, 0.084534, 0.084320, 0.084453, 0.084913, 0.084837, 0.083469, 0.080813, 0.077778, 0.075548, 0.074066, 0.071581, 0.066983, 0.063429, 0.063226, 0.064033, 0.064020, 0.065211, 0.067458, 0.068964, 0.068341, 0.065902, 0.065518, 0.065522, 0.063583, 0.062700, 0.065288, 0.068092, 0.070251, 0.070800, 0.068562, 0.066838, 0.065097, 0.065195, 0.069097, 0.074339, 0.078352, 0.080302, 0.080531, 0.081046, 0.081397, 0.081642, 0.081930, 0.081723, 0.082016, 0.084348, 0.087858, 0.089229, 0.088897, 0.091777, 0.095736, 0.100381, 0.105404, 0.110454, 0.114451, 0.116536, 0.116622, 0.119012, 0.122747, 0.126330, 0.128788, 0.130217, 0.131180, 0.131879, 0.132101, 0.132060, 0.132903, 0.135664, 0.139229, 0.141094, 0.140671, 0.141581, 0.142004, 0.141942, 0.142276, 0.143059, 0.143976, 0.145112, 0.145099, 0.144324, 0.143285, 0.141933, 0.139773, 0.136800, 0.134038, 0.132841, 0.133701, 0.133885, 0.134092, 0.134657, 0.134508, 0.132854, 0.130224, 0.127836, 0.126692, 0.127245, 0.126387, 0.125709, 0.123888, 0.118675, 0.112305, 0.107550, 0.105376, 0.105042, 0.104679, 0.104630, 0.104555, 0.103296, 0.102431, 0.101585, 0.099347, 0.095399, 0.092614, 0.091586, 0.087583, 0.083274, 0.078880, 0.073708, 0.069721, 0.068318, 0.069043, 0.070065, 0.069045, 0.068452, 0.068453, 0.069220, 0.070538, 0.072055, 0.073722, 0.075625, 0.077216, 0.077092, 0.074251, 0.070675, 0.068632, 0.069001, 0.068649, 0.069741, 0.072254, 0.074686, 0.076418, 0.078250, 0.081004, 0.084455, 0.087464, 0.088537, 0.088287, 0.091137, 0.095895, 0.100482, 0.103562, 0.105609, 0.108374, 0.113157, 0.119146, 0.123573, 0.124065, 0.124617, 0.126948, 0.129512, 0.132090, 0.134885, 0.137638, 0.139861, 0.141437, 0.142665, 0.143738, 0.144239, 0.145034, 0.147551, 0.151142, 0.154775, 0.157424, 0.158374, 0.158400, 0.159204, 0.160994, 0.163337, 0.164867, 0.165619, 0.165513, 0.165303, 0.165175, 0.163725, 0.160870, 0.158308, 0.157890, 0.156737, 0.154396, 0.152119, 0.149994, 0.147969, 0.145893, 0.143543, 0.141487, 0.139941, 0.139696, 0.140169, 0.140067, 0.140683, 0.141211, 0.140588, 0.139169, 0.136986, 0.134291, 0.131672, 0.129003, 0.125693, 0.121768, 0.118291, 0.116823, 0.116648, 0.113114, 0.107277, 0.101270, 0.096702, 0.093449, 0.089890, 0.084539, 0.077901, 0.072547, 0.070846, 0.068958, 0.065404, 0.061955, 0.058956, 0.056106, 0.053242, 0.051160, 0.049966, 0.048972, 0.047833, 0.047266, 0.046979, 0.045155, 0.042171, 0.038789, 0.036347, 0.036037, 0.036604, 0.035736, 0.033832, 0.031916, 0.030935, 0.030886, 0.031015, 0.031361, 0.032316, 0.033314, 0.033894, 0.033712, 0.033137, 0.033244, 0.032733, 0.031359, 0.030412, 0.029849, 0.029474, 0.029429, 0.029533, 0.030196, 0.030922, 0.031914, 0.033052, 0.033107, 0.032997, 0.033851, 0.035252, 0.037137, 0.039242, 0.040774, 0.041617, 0.042257, 0.042321, 0.043823, 0.048920, 0.057340, 0.067074, 0.075655, 0.081666, 0.084824, 0.085016, 0.087283, 0.091657, 0.096964, 0.102055, 0.106637, 0.111208, 0.116016, 0.120183, 0.122218, 0.121858, 0.123064, 0.124078, 0.125237, 0.127840, 0.131678, 0.135279, 0.137666, 0.138929, 0.139901, 0.141852, 0.144981, 0.147764, 0.149658, 0.150624, 0.151221, 0.151723, 0.151630, 0.151422, 0.153043, 0.155470, 0.157493, 0.158926, 0.159811, 0.160236, 0.160453, 0.160881, 0.161778, 0.162997, 0.163639, 0.164056, 0.164662, 0.165441, 0.166047, 0.166158, 0.165729, 0.165078, 0.164740, 0.165079, 0.165922, 0.166535, 0.166118, 0.164505, 0.162363, 0.160520, 0.159148, 0.158034, 0.157732, 0.156036, 0.150464, 0.141302, 0.130872, 0.121901, 0.115854, 0.112872, 0.112819, 0.110440, 0.105645, 0.099813, 0.094517, 0.090005, 0.085607, 0.080883, 0.076616, 0.074333, 0.074450, 0.073298, 0.072128, 0.070496, 0.067437, 0.063340, 0.059556, 0.056782, 0.054722, 0.052786, 0.050381, 0.047293, 0.044216, 0.042032, 0.040641, 0.040727, 0.041676, 0.043182, 0.043842, 0.042681, 0.042563, 0.043173, 0.043639, 0.043419, 0.042908, 0.043170, 0.042803, 0.041798, 0.041434, 0.041983, 0.043111, 0.044093, 0.044357, 0.043810, 0.043246, 0.043043, 0.042955, 0.042757, 0.042260, 0.041546, 0.041203, 0.041986, 0.043986, 0.046418, 0.048320, 0.049120, 0.049609, 0.051852, 0.055299, 0.058494, 0.060369, 0.061273, 0.062142, 0.063153, 0.063809, 0.063871, 0.063701, 0.063757, 0.064094, 0.064544, 0.065040, 0.065436, 0.065640, 0.065677, 0.065701, 0.065857, 0.066140, 0.066436, 0.066642, 0.066787, 0.066959, 0.067013, 0.067122, 0.067563, 0.068153, 0.068498, 0.068310, 0.067932, 0.067678, 0.067990, 0.067442, 0.065920, 0.064031, 0.063056, 0.062638, 0.060335, 0.057125, 0.054567, 0.053662, 0.053925, 0.053639, 0.053496, 0.053356, 0.052579, 0.051110, 0.049427, 0.048055, 0.047301, 0.047186, 0.046962, 0.046563, 0.046301, 0.046170, 0.046000, 0.045570, 0.044630, 0.042984, 0.040691, 0.038215, 0.036240, 0.035510, 0.035694, 0.035476, 0.035702, 0.037144, 0.039779, 0.042882, 0.045872, 0.048706, 0.051450, 0.053972, 0.055984, 0.057060, 0.056947, 0.059169, 0.064128, 0.070828, 0.077711, 0.083932, 0.089290, 0.093650, 0.096976, 0.099504, 0.101466, 0.102779, 0.103321, 0.103429, 0.103234, 0.102676, 0.101954, 0.101674, 0.102225, 0.102656, 0.102646, 0.103218, 0.103485, 0.103366, 0.104239, 0.105317, 0.106294, 0.107479, 0.108839, 0.109691, 0.109474, 0.109797, 0.110367, 0.110496, 0.111103, 0.112583, 0.114372, 0.115675, 0.116377, 0.116841, 0.117339, 0.117920, 0.118259, 0.118204, 0.117845, 0.117466, 0.117314, 0.117369, 0.117453, 0.117565, 0.117881, 0.118430, 0.118846, 0.118543, 0.116711, 0.113088, 0.108513, 0.104227, 0.100614, 0.097195, 0.093715, 0.090497, 0.087829, 0.085836, 0.084754, 0.084721, 0.082085, 0.076465, 0.069245, 0.061978, 0.055563, 0.050301, 0.046061, 0.042734, 0.040160, 0.038218, 0.036984, 0.036582, 0.036819, 0.037222, 0.037492, 0.037706, 0.037635, 0.036987, 0.036529, 0.036428, 0.035564, 0.034838, 0.034640, 0.033616, 0.032383, 0.031159, 0.029751, 0.028273, 0.027249, 0.027086, 0.026441, 0.025514, 0.025252, 0.024766, 0.023416, 0.021840, 0.020615, 0.019848, 0.019338, 0.018962, 0.018742, 0.018613, 0.018338, 0.018267, 0.018458, 0.018510, 0.018200, 0.017730, 0.017400, 0.016977, 0.016670, 0.016316, 0.015875, 0.015769, 0.015734, 0.015595, 0.015387, 0.015047, 0.014654, 0.014368, 0.014292, 0.014431, 0.014496, 0.014374, 0.014261, 0.014090, 0.014219, 0.014319, 0.014385, 0.014324, 0.014087, 0.013830, 0.013524, 0.013039, 0.012573, 0.012155, 0.011846, 0.011612, 0.011371, 0.011136, 0.011022, 0.011174, 0.011634, 0.011955, 0.011863, 0.012402, 0.013549, 0.014686, 0.015372, 0.015569, 0.015540, 0.015422, 0.015169, 0.014945, 0.015049, 0.015092, 0.015125, 0.015010, 0.014860, 0.014646, 0.014519, 0.014433, 0.014231, 0.014024, 0.013874, 0.013750, 0.013694, 0.013778, 0.013517, 0.013046, 0.012523, 0.012395, 0.012556, 0.012652, 0.012749, 0.012556, 0.012389, 0.012511, 0.012552, 0.012671, 0.012861, 0.012886, 0.012934, 0.013102, 0.013209, 0.013105, 0.012885, 0.012817, 0.012902, 0.012939, 0.012980, 0.012828, 0.012667, 0.012618, 0.012615, 0.012625, 0.012681, 0.012815, 0.012973, 0.012893, 0.012740, 0.012550, 0.012302, 0.012127, 0.012041, 0.011864, 0.011631, 0.011304, 0.010954, 0.010990, 0.010521, 0.009462, 0.008265, 0.007507, 0.007391, 0.007526, 0.007485, 0.007506, 0.007674, 0.007710, 0.007739, 0.007856, 0.007993, 0.008063, 0.008098, 0.007986, 0.007873, 0.007953, 0.008058, 0.008040, 0.007838, 0.007574, 0.007536, 0.007742, 0.007838, 0.007927, 0.007843, 0.007675, 0.007600, 0.007764, 0.008082, 0.008238, 0.008091, 0.007819, 0.007621, 0.007533, 0.007511, 0.007478, 0.007354, 0.007169, 0.007055, 0.007071, 0.007143, 0.007221, 0.007340, 0.007529, 0.007651, 0.007669, 0.007802, 0.008027, 0.008077, 0.007859, 0.007616, 0.007486, 0.007627, 0.007872, 0.008140, 0.008500, 0.008883, 0.009204, 0.009469, 0.009480, 0.009398, 0.009473, 0.009601, 0.009648, 0.009686, 0.009748, 0.009809, 0.009735, 0.009568, 0.009500, 0.009397, 0.009259, 0.009225, 0.009260, 0.009286, 0.009323, 0.009396, 0.009475, 0.009550, 0.009591, 0.009525, 0.009350, 0.009263, 0.009294, 0.009314, 0.009157, 0.009084, 0.009040, 0.008980, 0.008944, 0.008913, 0.008785, 0.008490, 0.008119, 0.007961, 0.008077, 0.008179, 0.008052, 0.008007, 0.008066, 0.008009, 0.007937, 0.007876, 0.007817, 0.007773, 0.007694, 0.007482, 0.007318, 0.007174, 0.007047, 0.007031, 0.006802, 0.006549, 0.006465, 0.006639, 0.006856, 0.007002, 0.006867, 0.006681, 0.006435, 0.006070, 0.005635, 0.005267, 0.005064, 0.005006, 0.004985, 0.004930, 0.004902, 0.005005, 0.005255, 0.005508, 0.005678, 0.005868, 0.006168, 0.006492, 0.006677, 0.006646, 0.006552, 0.006401, 0.006215, 0.006039, 0.005922, 0.005899, 0.005913, 0.005867, 0.005814, 0.005891, 0.005870, 0.005820, 0.005860, 0.005958, 0.005886, 0.005753, 0.005706, 0.005735, 0.005760, 0.005772, 0.005825, 0.005891, 0.005889, 0.005851, 0.005781, 0.006021, 0.006180, 0.006179, 0.006188, 0.006138, 0.006132, 0.006190, 0.006170, 0.006119, 0.006205, 0.006294, 0.006370, 0.006494, 0.006597, 0.006814, 0.007078, 0.007237, 0.007128, 0.006889, 0.006713, 0.006715, 0.006695, 0.006735, 0.006847, 0.006950, 0.006978, 0.006914, 0.006902, 0.006948, 0.007060, 0.007214, 0.007166, 0.006789, 0.006641, 0.006535, 0.006374, 0.006243, 0.006032, 0.005885, 0.005984, 0.006205, 0.006537, 0.006991, 0.007499, 0.007940, 0.008256, 0.008474, 0.008633, 0.008721, 0.008683, 0.008638, 0.008599, 0.008496, 0.008498, 0.008798, 0.009366, 0.009977, 0.010521, 0.011055, 0.011565, 0.011920, 0.012136, 0.012267, 0.012312, 0.012376, 0.012196, 0.011944, 0.011847, 0.011874, 0.011928, 0.011880, 0.011883, 0.011960, 0.011973, 0.011904, 0.011728, 0.011579, 0.011542, 0.011565, 0.011542, 0.011419, 0.011285, 0.011264, 0.011283, 0.011330, 0.011490, 0.011748, 0.011946, 0.012018, 0.012083, 0.012231, 0.012440, 0.012614, 0.012764, 0.012859, 0.012852, 0.012860, 0.013068, 0.013115, 0.013239, 0.013353, 0.013255, 0.013191, 0.013156, 0.013127, 0.013105, 0.013043, 0.012887, 0.012595, 0.012187, 0.011773, 0.011478, 0.011309, 0.011202, 0.011255, 0.011453, 0.011673, 0.011813, 0.011743, 0.011388, 0.010871, 0.010372, 0.009863, 0.009321, 0.008808, 0.008432, 0.008167, 0.008046, 0.007989, 0.007949, 0.007974, 0.008016, 0.008049, 0.008115, 0.008171, 0.008240, 0.008160, 0.008131, 0.008231, 0.008344, 0.008392, 0.008454, 0.008552, 0.008538, 0.008417, 0.008306, 0.008260, 0.008302, 0.008470, 0.008619, 0.008508, 0.008242, 0.008064, 0.008076, 0.008209, 0.008299, 0.008276, 0.008175, 0.008039, 0.007870, 0.007697, 0.007570, 0.007451, 0.007246, 0.007001, 0.006889, 0.006994, 0.007168, 0.007263, 0.007239, 0.007194, 0.007025, 0.006751, 0.006687, 0.006783, 0.006895, 0.006944, 0.007004, 0.007134, 0.007126, 0.006956, 0.006828, 0.006718, 0.006745, 0.006823, 0.006795, 0.006790, 0.006743, 0.006806, 0.006867, 0.006854, 0.006885, 0.006880, 0.006805, 0.006839, 0.006933, 0.007048, 0.007099, 0.007056, 0.007044, 0.007124, 0.007306, 0.007420, 0.007436, 0.007408, 0.007466, 0.007512, 0.007423, 0.007275, 0.007292, 0.007420, 0.007529, 0.007519, 0.007368, 0.007192, 0.007116, 0.007087, 0.006991, 0.006799, 0.006527, 0.006226, 0.006074, 0.006058, 0.006061, 0.006005, 0.005889, 0.005835, 0.005959, 0.006238, 0.006507, 0.006585, 0.006406, 0.006257, 0.006254, 0.006230, 0.006035, 0.005918, 0.005971, 0.005904, 0.005768, 0.005659, 0.005606, 0.005576, 0.005528, 0.005515, 0.005574, 0.005608, 0.005723, 0.005738, 0.005658, 0.005712, 0.005722, 0.005825, 0.005844, 0.005797, 0.005871, 0.005988, 0.005996, 0.006032, 0.005957, 0.005802, 0.005697, 0.005676, 0.005676, 0.005601, 0.005451, 0.005320, 0.005287, 0.005403, 0.005528, 0.005512, 0.005422, 0.005420, 0.005586, 0.005693, 0.005665, 0.005539, 0.005467, 0.005501, 0.005700, 0.005906, 0.005945, 0.006049, 0.006263, 0.006481, 0.006600, 0.006589, 0.006507, 0.006667, 0.007026, 0.007374, 0.007617, 0.007850, 0.008129, 0.008372, 0.008540, 0.008707, 0.008793, 0.008937, 0.009255, 0.009664, 0.009964, 0.010087, 0.010184, 0.010503, 0.011197, 0.012236, 0.013423, 0.014503, 0.015129, 0.015119, 0.015900, 0.017311, 0.019209, 0.021486, 0.023918, 0.026338, 0.028493, 0.030346, 0.032136, 0.033883, 0.035581, 0.037265, 0.038853, 0.040449, 0.041992, 0.043016, 0.042944, 0.044355, 0.047238, 0.050958, 0.054430, 0.056866, 0.058253, 0.059265, 0.060526, 0.062209, 0.064335, 0.066899, 0.069540, 0.071704, 0.073231, 0.074348, 0.075317, 0.075946, 0.075948, 0.076604, 0.077901, 0.079315, 0.080571, 0.081806, 0.083195, 0.084792, 0.086215, 0.087441, 0.088657, 0.089798, 0.090650, 0.091267, 0.091851, 0.092312, 0.092216, 0.092843, 0.093995, 0.095136, 0.096110, 0.097088, 0.098052, 0.098616, 0.098309, 0.098298, 0.098390, 0.098235, 0.097618, 0.097174, 0.098070, 0.098480, 0.098072, 0.096497, 0.094906, 0.094053, 0.093610, 0.093373, 0.093196, 0.092820, 0.091981, 0.090648, 0.089036, 0.087469, 0.086029, 0.084995, 0.085268, 0.087720, 0.089414, 0.089387, 0.087182, 0.083894, 0.082905, 0.083574, 0.084764, 0.085416, 0.085004, 0.083487, 0.081122, 0.078517, 0.076332, 0.074845, 0.073996, 0.073385, 0.073077, 0.073746, 0.074693, 0.075774, 0.076794, 0.077013, 0.075798, 0.075455, 0.075259, 0.074782, 0.074291, 0.074166, 0.074353, 0.074242, 0.073144, 0.073920, 0.076456, 0.080057, 0.082380, 0.083517, 0.084612, 0.086052, 0.086984, 0.086525, 0.086918, 0.089673, 0.092969, 0.096247, 0.099254, 0.102008, 0.104177, 0.104881, 0.104599, 0.104029, 0.104105, 0.104068, 0.103138, 0.101433, 0.099718, 0.098897, 0.098465, 0.097897, 0.097486, 0.097476, 0.098678, 0.100786, 0.102436, 0.102145, 0.099722, 0.096753, 0.093901, 0.092559, 0.092963, 0.092211, 0.090328, 0.088116, 0.086466, 0.085334, 0.085614, 0.086976, 0.089343, 0.092790, 0.096471, 0.098223, 0.099217, 0.103590, 0.109223, 0.113451, 0.114960, 0.114228, 0.112893, 0.112800, 0.112712, 0.113578, 0.115003, 0.115550, 0.114282, 0.113663, 0.114113, 0.116094, 0.117011, 0.117247, 0.117206, 0.116698, 0.114849, 0.113773, 0.114582, 0.117134, 0.120562, 0.121480, 0.118718, 0.115729, 0.112620, 0.109903, 0.107798, 0.106199, 0.105516, 0.106814, 0.110524, 0.115555, 0.120304, 0.124214, 0.127809, 0.130570, 0.130531, 0.132293, 0.138663, 0.147899, 0.157113, 0.163090, 0.165300, 0.165248, 0.164274, 0.165878, 0.167974, 0.169348, 0.169253, 0.169113, 0.168981, 0.171091, 0.174825, 0.179377, 0.184799, 0.189632, 0.193433, 0.196002, 0.197334, 0.197872, 0.198845, 0.198881, 0.194209, 0.188298, 0.183840, 0.182331, 0.184358, 0.189439, 0.195599, 0.200238, 0.202101, 0.202143, 0.202540, 0.205096, 0.207870, 0.209803, 0.208926, 0.208118, 0.208263, 0.207830, 0.206854, 0.206386, 0.205280, 0.201886, 0.197781, 0.195403, 0.195540, 0.197068, 0.196311, 0.195971, 0.196088, 0.196388, 0.196957, 0.197250, 0.195995, 0.192526, 0.187608, 0.182490, 0.178026, 0.174496, 0.171534, 0.171999, 0.171438, 0.166495, 0.157950, 0.148708, 0.141985, 0.138038, 0.136204, 0.136234, 0.134901, 0.132670, 0.132103, 0.133662, 0.135342, 0.136956, 0.136459, 0.133930, 0.129602, 0.124454, 0.120093, 0.116398, 0.112489, 0.107643, 0.104899, 0.104431, 0.105681, 0.107634, 0.108486, 0.107997, 0.106105, 0.102356, 0.097024, 0.090907, 0.085491, 0.081601, 0.079109, 0.077627, 0.075592, 0.072391, 0.069526, 0.069479, 0.069069, 0.067036, 0.065165, 0.063976, 0.064689, 0.066282, 0.068103, 0.068634, 0.067183, 0.065151, 0.064052, 0.064783, 0.065080, 0.064296, 0.063347, 0.063406, 0.063150, 0.062635, 0.064272, 0.067526, 0.071577, 0.075134, 0.076723, 0.076689, 0.076676, 0.075608, 0.074084, 0.073610, 0.074633, 0.075669, 0.076207, 0.076466, 0.077246, 0.078865, 0.081391, 0.082929, 0.082821, 0.081150, 0.079307, 0.078649, 0.079170, 0.080461, 0.081158, 0.079772, 0.078803, 0.078965, 0.080609, 0.081000, 0.080614, 0.080155, 0.080044, 0.080106, 0.079810, 0.079426, 0.080174, 0.082106, 0.085964, 0.091587, 0.097655, 0.102289, 0.103956, 0.103439, 0.103791, 0.104584, 0.105139, 0.105102, 0.104628, 0.104333, 0.105050, 0.105451, 0.104937, 0.104371, 0.104088, 0.103989, 0.104954, 0.105516, 0.104630, 0.104161, 0.104434, 0.104522, 0.103298, 0.102281, 0.101843, 0.099543, 0.095907, 0.091938, 0.088696, 0.086995, 0.086966, 0.085935, 0.084969, 0.084854, 0.084849, 0.083892, 0.083258, 0.083568, 0.084566, 0.085304, 0.085047, 0.083869, 0.082420, 0.081223, 0.081093, 0.081772, 0.082053, 0.081684, 0.080902, 0.080597, 0.081669, 0.082433, 0.082874, 0.082992, 0.082631, 0.081468, 0.079404, 0.077621, 0.076400, 0.075908, 0.075943, 0.075610, 0.074510, 0.071711, 0.067039, 0.061784, 0.057963, 0.056812, 0.057947, 0.058112, 0.056882, 0.056216, 0.057007, 0.058598, 0.059484, 0.058776, 0.057913, 0.057036, 0.056396, 0.056995, 0.058719, 0.058901, 0.057889, 0.058780, 0.058885, 0.058259, 0.057927, 0.058587, 0.059909, 0.060818, 0.061042, 0.060994, 0.061151, 0.061521, 0.061809, 0.061785, 0.061647, 0.061645, 0.062107, 0.062394, 0.062583, 0.063576, 0.065469, 0.067728, 0.069437, 0.070161, 0.070134, 0.069584, 0.069931, 0.071143, 0.072000, 0.072226, 0.072031, 0.071611, 0.070975, 0.070964, 0.070978, 0.070679, 0.070025, 0.069234, 0.068612, 0.068778, 0.069726, 0.070879, 0.071279, 0.071388, 0.071017, 0.072287, 0.074793, 0.076720, 0.077033, 0.076336, 0.075581, 0.075034, 0.074720, 0.075100, 0.074716, 0.072943, 0.070170, 0.068959, 0.069693, 0.070342, 0.070492, 0.070131, 0.069027, 0.067696, 0.067238, 0.068065, 0.067632, 0.067076, 0.067399, 0.068477, 0.069505, 0.070170, 0.070811, 0.071458, 0.071326, 0.071881, 0.072746, 0.073543, 0.074034, 0.073983, 0.074101, 0.073675, 0.073394, 0.073293, 0.071591, 0.069153, 0.066674, 0.064801, 0.063698, 0.063196, 0.063327, 0.062925, 0.061503, 0.059695, 0.058258, 0.057712, 0.058184, 0.059137, 0.058819, 0.057438, 0.056128, 0.055652, 0.055814, 0.056471, 0.057127, 0.056832, 0.056167, 0.056056, 0.055739, 0.055562, 0.053538, 0.050560, 0.048321, 0.047514, 0.047454, 0.047546, 0.047981, 0.048896, 0.049840, 0.050375, 0.050648, 0.051056, 0.050371, 0.049564, 0.048938, 0.048834, 0.049396, 0.050213, 0.050429, 0.049622, 0.049198, 0.049038, 0.048783, 0.048205, 0.046930, 0.045100, 0.043389, 0.042016, 0.041104, 0.041279, 0.040803, 0.039794, 0.038715, 0.038460, 0.039062, 0.039677, 0.040223, 0.040547, 0.040892, 0.041298, 0.041094, 0.040436, 0.039649, 0.039119, 0.039140, 0.039727, 0.040731, 0.042099, 0.043799, 0.045618, 0.047198, 0.048241, 0.048736, 0.049065, 0.049940, 0.051445, 0.053158, 0.054619, 0.055297, 0.054971, 0.054299, 0.054549, 0.055369, 0.055988, 0.056277, 0.057015, 0.057089, 0.056490, 0.055926, 0.055710, 0.055243, 0.054052, 0.052588, 0.051610, 0.051465, 0.052064, 0.053197, 0.054576, 0.055409, 0.000000, 