0.052205506, 0.011687449, -0.026549557, -0.048481161, -0.049448256, -0.039971310, -0.033519110, -0.040432812, -0.063061077, -0.093887605, -0.123250263, -0.146972022, -0.159323798, -0.148006726, -0.116189586, -0.095892344, -0.107953109, -0.127962280, -0.119475946, -0.073202349, 0.000349800, 0.082376526, 0.138726727, 0.139370477, 0.102958900, 0.082679295, 0.092003386, 0.090301416, 0.052370118, 0.004567982, -0.015129603, -0.001266924, 0.021290793, 0.031890627, 0.032293339, 0.029612515, 0.025614796, 0.030544336, 0.057511302, 0.092791172, 0.099740148, 0.064301546, 0.016361253, -0.007786733, -0.006214101, 0.001846006, 0.007575090, 0.006996008, -0.018421842, -0.087785205, -0.189427209, -0.278029595, -0.310437574, -0.288802860, -0.248408261, -0.193898188, -0.095683639, 0.041787921, 0.162707161, 0.215665179, 0.197457921, 0.141093023, 0.075168874, 0.013944984, -0.015370641, 0.033954156, 0.184103776, 0.376452847, 0.479270651, 0.401741359, 0.212375880, 0.078358231, 0.069974779, 0.100098767, 0.068657883, -0.014468215, -0.080933232, -0.104778450, -0.102838380, -0.090154441, -0.071594443, -0.049768661, -0.033704298, -0.039759667, -0.069977719, -0.093819997, -0.070374551, 0.004509192, 0.086647619, 0.127262680, 0.115595807, 0.075004262, 0.036255783, 0.020238452, 0.028521961, 0.041508669, 0.034262803, 0.001631422, -0.036364545, -0.054521832, -0.036476246, 0.020617648, 0.089781125, 0.114863872, 0.066382711, -0.010352916, -0.051938012, -0.065151061, -0.100054675, -0.160085128, -0.196279182, -0.182725151, -0.150881556, -0.135020018, -0.124740589, -0.089669424, -0.020047385, 0.065400918, 0.138276983, 0.184121413, 0.202607924, 0.188751124, 0.134637883, 0.051990923, -0.026155664, -0.071470984, -0.080395304, -0.068881285, -0.057405480, -0.064730712, -0.095974650, -0.127286196, -0.123553032, -0.075924326, -0.006796122, 0.061814729, 0.122183225, 0.159109214, 0.150702246, 0.096074593, 0.015070813, -0.067552632, -0.119055598, -0.098790690, 0.001604967, 0.114358278, 0.140622704, 0.062290928, -0.030356209, -0.042763835, 0.021861056, 0.078799156, 0.065835964, 0.012046068, -0.012536964, 0.004935419, 0.009759137, -0.036020624, -0.099199280, -0.120989788, -0.085201385, -0.025938141, 0.015923267, 0.031720136, 0.038642657, 0.050832760, 0.067917130, 0.080360030, 0.081186029, 0.072732029, 0.061188616, 0.048733958, 0.029818280, -0.003950687, -0.047031988, -0.074563337, -0.072258770, -0.060389072, -0.063422635, -0.073278776, -0.065271580, -0.036682011, -0.012354715, -0.011543413, -0.024165623, -0.027366738, -0.010549863, 0.018457116, 0.041799679, 0.047040806, 0.033560263, 0.007292898, -0.019009742, -0.029944679, -0.029089284, -0.041205900, -0.078170103, -0.122086221, -0.148133124, -0.146331211, -0.121095610, -0.082047302, -0.032913573, 0.025961657, 0.077155976, 0.094163918, 0.078187740, 0.059786475, 0.056749972, 0.047505247, 0.001710789, -0.070007114, -0.121554172, -0.126868787, -0.099031729, -0.051129650, 0.022863425, 0.115904455, 0.196499644, 0.244639823, 0.259193284, 0.229433794, 0.146195994, 0.039095340, -0.037114117, -0.057593608, -0.041479274, -0.013733340, 0.015964420, 0.043151849, 0.062502572, 0.069301634, 0.062205683, 0.045115434, 0.024609488, 0.004958935, -0.013745098, -0.029747732, -0.037640288, -0.034556753, -0.023104464, -0.011628659, -0.009515159, -0.015717502, -0.020153207, -0.018092618, -0.013383540, -0.010264731, -0.009394640, -0.011049578, -0.018013251, -0.029765369, -0.039162948, -0.043801478, -0.047602250, -0.047590492, -0.040817886, -0.036311634, -0.039556841, -0.041652704, -0.033927700, -0.019438908, -0.009767956, -0.008371694, 0.000555565, 0.030320935, 0.066009395, 0.075307031, 0.046990835, 0.002563243, -0.034039401, -0.050015579, -0.042355244, -0.028154524, -0.033880668, -0.066570839, -0.102982416, -0.108505735, -0.071650294, -0.012237135, 0.048437068, 0.099360953, 0.119367185, 0.087508892, 0.021802266, -0.027760631, -0.035614973, -0.024033346, -0.019941563, -0.019244901, -0.010097180, 0.002210503, 0.010879087, 0.018971528, 0.027463741, 0.029979953, 0.025009259, 0.023366079, 0.029730095, 0.033031153, 0.027360859, 0.020441278, 0.019765193, 0.021461284, 0.015779232, 0.004371035, -0.001419778, -0.000182249, 0.000464441, -0.000343921, 0.000881850, 0.002971834, 0.004135875, 0.004265213, 0.001413899, -0.003821349, -0.004256395, 0.002463300, 0.005141184, -0.006255254, -0.027331464, -0.045432900, -0.049562896, -0.038666173, -0.022960428, -0.012131313, -0.007586848, -0.006331681, -0.005620323, -0.005264643, -0.007830826, -0.012789761, -0.012234196, -0.002028254, 0.007201773, 0.003315755, -0.006781425, -0.004709078, 0.012486993, 0.026643621, 0.023242620, 0.016652263, 0.032848904, 0.065439132, 0.078528722, 0.052411271, 0.004476857, -0.033045850, -0.047052564, -0.048119602, -0.046940863, -0.043445799, -0.036755498, -0.029900586, -0.024145047, -0.020423641, -0.022781119, -0.031305667, -0.037990088, -0.031820079, -0.010297066, 0.011396439, 0.013962621, -0.003315755, -0.019065592, -0.007613303, 0.035071165, 0.083978553, 0.104828421, 0.086200815, 0.056341382, 0.051423599, 0.067931827, 0.068146411, 0.033081124, -0.009106569, -0.020761683, -0.003556794, 0.010649806, 0.001963585, -0.019233143, -0.028545477, -0.017046156, 0.003289300, 0.018330717, 0.019397755, 0.008398149, 0.003571492, 0.018662881, 0.042772653, 0.053666437, 0.041061865, 0.013439390, -0.013063135, -0.030379725, -0.040188833, -0.042164177, -0.033269252, -0.021843419, -0.026814112, -0.048725139, -0.056620634, -0.030817710, 0.000552626, -0.001466810, -0.031987631, -0.050735757, -0.036905413, -0.010200062, 0.006228799, 0.010361735, 0.005035362, -0.005746721, -0.010173607, -0.002075286, 0.011461107, 0.021111483, 0.024189139, 0.022904578, 0.017810426, 0.006851973, -0.010817357, -0.032619623, -0.050497657, -0.057199715, -0.053951569, -0.044124823, -0.030441454, -0.016193701, 0.002654368, 0.030779496, 0.055077397, 0.056141496, 0.037014174, 0.019377179, 0.008856711, -0.017390077, -0.075430490, -0.138817851, -0.160684786, -0.130766563, -0.078666878, -0.025767650, 0.025411971, 0.070853689, 0.107997202, 0.142033663, 0.168289270, 0.161102195, 0.103887782, 0.021558287, -0.042561009, -0.068798979, -0.063061077, -0.038069454, -0.004559163, 0.027798844, 0.043248852, 0.025129779, -0.021214366, -0.062808280, -0.072493930, -0.060859392, -0.052496517, -0.043898481, -0.014047867, 0.037396309, 0.082400042, 0.092617742, 0.070577376, 0.043187123, 0.026658318, 0.015538193, 0.005467469, 0.006901944, 0.025514853, 0.046852678, 0.055074458, 0.053666437, 0.056135617, 0.060051030, 0.047079020, 0.009647436, -0.036138203, -0.061241527, -0.050409472, -0.020162025, 0.000393893, 0.001055280, -0.007175318, -0.013839162, -0.018192561, -0.020788139, -0.021593561, -0.023389595, -0.028354410, -0.034530297, -0.037484494, -0.034800731, -0.031561403, -0.033460320, -0.031099902, -0.010103059, 0.023116222, 0.043716233, 0.032969423, -0.006140614, -0.048445887, -0.061506082, -0.037681441, -0.001422718, 0.031382094, 0.068166987, 0.106918405, 0.126833513, 0.110498715, 0.064022293, 0.012437021, -0.028374986, -0.057925772, -0.076538681, -0.085389513, -0.088825788, -0.090627701, -0.092073934, -0.088643539, -0.074936654, -0.054577682, -0.036079414, -0.024018648, -0.015814506, 0.003177599, 0.055415439, 0.141031294, 0.214477622, 0.216382417, 0.132594931, 0.008921380, -0.091947536, -0.137909546, -0.132589052, -0.093928758, -0.042616860, -0.002304567, 0.007968982, -0.008233537, -0.025676526, -0.021108544, 0.012146011, 0.058957536, 0.089310805, 0.085471819, 0.049577594, -0.010408767, -0.072737908, -0.094619541, -0.053907476, 0.006025973, 0.017231344, -0.025597159, -0.066491473, -0.076385827, -0.084545877, -0.109161243, -0.106051253, -0.022534201, 0.113723346, 0.205041829, 0.198351529, 0.144708607, 0.123267900, 0.148920910, 0.173312874, 0.146939687, 0.064845353, -0.032058179, -0.091744710, -0.099090519, -0.081829779, -0.060782965, -0.029741853, 0.006687361, 0.021132060, 0.001128768, -0.030300358, -0.041370512, -0.024068620, 0.003186417, 0.017713422, 0.014900322, 0.003938929, -0.008162989, -0.016331858, -0.017010882, -0.013877376, -0.011575748, -0.009347608, -0.008042470, -0.012728032, -0.023292592, -0.026825870, -0.004612074, 0.042616860, 0.078381747, 0.057096833, -0.025341423, -0.117191955, -0.161493148, -0.151234296, -0.116668724, -0.080471731, -0.050826881, -0.040303474, -0.058825259, -0.085921562, -0.081397673, -0.037422765, 0.008083623, 0.019318389, -0.005823148, -0.046200109, -0.064657225, -0.021517134, 0.080947930, 0.175805570, 0.185793988, 0.107080078, 0.015838022, -0.015388278, 0.012907341, 0.045676878, 0.042904931, 0.013407056, -0.015200151, -0.034771336, -0.059768838, -0.101559698, -0.139808462, -0.126730630, -0.033242797, 0.104898969, 0.200326872, 0.200027043, 0.146992598, 0.118067926, 0.126010453, 0.126710054, 0.094208011, 0.051129650, 0.033410348, 0.047552279, 0.072064763, 0.082932092, 0.067611422, 0.030259205, -0.011170097, -0.040447509, -0.057661217, -0.076571015, -0.107885501, -0.139978953, -0.142836146, -0.105807275, -0.056844036, -0.032845964, -0.038501561, -0.042020141, -0.017248981, 0.025829380, 0.063011105, 0.083966795, 0.084304838, 0.056541268, 0.011175976, -0.017213707, -0.007433994, 0.024515424, 0.049198399, 0.049357132, 0.023195588, -0.017792789, -0.055000970, -0.072273467, -0.063704827, -0.040091830, -0.021631775, -0.018480632, -0.025009259, -0.030273903, -0.027566624, -0.017554689, -0.009094811, -0.016990306, -0.054898088, -0.125957542, -0.209330558, -0.263496711, -0.267326878, -0.243875553, -0.217628765, -0.176308224, -0.101524424, -0.004168210, 0.093570139, 0.186064422, 0.275060701, 0.352566477, 0.406841391, 0.418558234, 0.350652863, 0.191564225, 0.004935419, -0.114822719, -0.127671270, -0.066268071, 0.003471549, 0.029727156, 0.006916642, -0.026646560, -0.032049360, -0.009462248, 0.023945161, 0.068810737, 0.113138386, 0.100392717, -0.008515729, -0.155102677, -0.226955796, -0.171161161, -0.030606066, 0.094934067, 0.113829168, 0.018127892, -0.106007161, -0.171164100, -0.169309276, -0.145161290, -0.123473665, -0.088884578, -0.030708948, 0.026126269, 0.053878081, 0.053016808, 0.032537317, -0.003874260, -0.035162290, -0.023754093, 0.036199933, 0.096242144, 0.108879051, 0.096597824, 0.124011593, 0.194212714, 0.228734193, 0.174376973, 0.080445275, 0.030512002, 0.029347960, 0.015320670, -0.028568993, -0.047146628, -0.004282850, 0.060647748, 0.085263115, 0.054298430, 0.003450972, -0.023489538, -0.010570439, 0.015655773, 0.005073576, -0.056941040, -0.122036250, -0.137168792, -0.106918405, -0.069954203, -0.043754446, -0.020585313, 0.004761989, 0.022919275, 0.022501867, 0.004009477, -0.024515424, -0.056741154, -0.087438344, -0.109037784, -0.119423035, -0.127189192, -0.134038225, -0.127865277, -0.106339324, -0.081665168, -0.057975743, -0.031579040, -0.005467469, 0.013551091, 0.015385339, -0.008530427, -0.037031811, -0.014018472, 0.093393769, 0.225515441, 0.269181702, 0.194877041, 0.091115658, 0.041408726, 0.036693769, 0.019800467, -0.043466375, -0.143456381, -0.236515047, -0.274137698, -0.245662769, -0.191193848, -0.153433041, -0.130487310, -0.100248682, -0.066209281, -0.054583561, -0.072076521, -0.081274214, -0.040712064, 0.040800249, 0.120869269, 0.180241274, 0.237652633, 0.311263573, 0.370144682, 0.348724551, 0.232728972, 0.092259123, -0.001975343, -0.050676967, -0.074545700, -0.048589922, 0.044383499, 0.147324762, 0.186843389, 0.157413123, 0.108029536, 0.091706497, 0.135766651, 0.210409355, 0.240897841, 0.186487710, 0.083070248, -0.009756198, -0.079522273, -0.153009753, -0.223657678, -0.231920610, -0.138682634, 0.007927829, 0.095768885, 0.054639412, -0.056117980, -0.099355074, -0.011399378, 0.126092759, 0.182648724, 0.119132025, -0.001960646, -0.113308877, -0.199195165, -0.261048108, -0.274093605, -0.218052053, -0.131113424, -0.086897476, -0.116701059, -0.179662193, -0.207754987, -0.156648853, -0.022398984, 0.144252985, 0.242696814, 0.204694968, 0.073158257, -0.051552937, -0.115901515, -0.122732911, -0.089416627, -0.039512749, -0.002513272, 0.009571009, 0.018883343, 0.053369548, 0.104046515, 0.135757832, 0.130166905, 0.091497792, 0.021678807, -0.078487569, -0.177090131, -0.216982075, -0.181096668, -0.126310282, -0.124784682, -0.183060254, -0.244631005, -0.265148709, -0.245618676, -0.189165594, -0.082238370, 0.050268376, 0.132515565, 0.141260575, 0.163821231, 0.276092465, 0.413940281, 0.443676255, 0.327695374, 0.156204989, 0.031443823, -0.019806346, -0.023424869, -0.010064845, 0.001710789, 0.015976178, 0.048363581, 0.080559916, 0.059471948, -0.030700130, -0.143582779, -0.236517987, -0.295701864, -0.287894554, -0.169209333, 0.031537887, 0.197572562, 0.240830232, 0.212190691, 0.229713046, 0.304361629, 0.333342152, 0.273252909, 0.201928899, 0.177927888, 0.153862208, 0.079310629, -0.002724916, -0.020385427, 0.022060942, 0.052975655, 0.017143159, -0.078678636, -0.187639994, -0.277500485, -0.353759913, -0.421118538, -0.448091383, -0.391118009, -0.244830891, -0.060633051, 0.090283779, 0.175194154, 0.209024851, 0.212549310, 0.193560145, 0.164188669, 0.135860715, 0.095959952, 0.031390912, -0.023730577, -0.016043787, 0.050915066, 0.113373546, 0.109913755, 0.027928182, -0.086247847, -0.155108556, -0.134908317, -0.065894754, -0.035047649, -0.071903091, -0.117709307, -0.113488186, -0.069363363, -0.031579040, -0.018686397, -0.014773923, -0.008389331, -0.006443382, -0.013409995, -0.021343704, -0.021273156, -0.013936166, -0.008383452, -0.009812048, -0.013248323, -0.015076692, -0.022113853, -0.040770854, -0.067158739, -0.093402588, -0.116066127, -0.135202267, -0.141398731, -0.113817410, -0.046585184, 0.041108897, 0.126157428, 0.187199069, 0.202616742, 0.171481566, 0.122436022, 0.080113112, 0.038566230, -0.010676261, -0.048731018, -0.051223714, -0.015779232, 0.044380559, 0.104893090, 0.123629458, 0.070603832, -0.024203837, -0.087041512, -0.083834518, -0.064357396, -0.089757609, -0.142506923, -0.152124964, -0.083414170, 0.032848904, 0.134740766, 0.168433306, 0.111977284, -0.003500944, -0.100022340, -0.104563866, -0.015644015, 0.086697590, 0.136968906, 0.163594890, 0.209536323, 0.227811190, 0.145387632, -0.001945948, -0.090745281, -0.067875977, -0.000623174, 0.043046027, 0.070815476, 0.105404563, 0.130175723, 0.118714616, 0.072264649, 0.009338789, -0.054862814, -0.105331076, -0.132324497, -0.144391142, -0.151119655, -0.146557552, -0.126986367, -0.104866635, -0.093193883, -0.086815170, -0.073710883, -0.064798321, -0.088649418, -0.138465111, -0.144438174, -0.044903790, 0.117635820, 0.225577171, 0.211496969, 0.115513501, 0.025100384, -0.013554031, -0.014341817, -0.003327513, 0.013380600, 0.042317031, 0.086653498, 0.132674298, 0.144887917, 0.092588347, -0.004932480, -0.085377755, -0.102497399, -0.061473747, -0.008824377, 0.005635020, -0.027069848, -0.063549034, -0.054736415, -0.008168868, 0.021946301, 0.012516388, -0.002930681, 0.003697890, 0.011128944, -0.019603520, -0.085742253, -0.126092759, -0.082111971, 0.025949899, 0.112644550, 0.122644726, 0.085751071, 0.061858822, 0.057605366, 0.031243937, -0.034398020, -0.105589752, -0.143474018, -0.145558123, -0.141851414, -0.162771830, -0.195353240, -0.176810878, -0.074284085, 0.044524595, 0.081024357, 0.038577988, 0.022234372, 0.101345115, 0.235383340, 0.335729025, 0.345632198, 0.268799567, 0.158412553, 0.073840221, 0.029250957, -0.009859080, -0.069866018, -0.129326208, -0.152598223, -0.135890110, -0.097744228, -0.046779191, 0.013204231, 0.055591809, 0.042837322, -0.024791736, -0.096597824, -0.118476516, -0.081259517, -0.018801037, 0.028495506, 0.042108326, 0.032331552, 0.019147898, 0.002325144, -0.034921251, -0.093346737, -0.141034233, -0.136595590, -0.069719043, 0.032061118, 0.122100919, 0.153753447, 0.115528199, 0.050103764, 0.012040189, 0.009541614, 0.007084193, -0.021999212, -0.066770725, -0.099402106, -0.107562156, -0.096456728, -0.069577947, -0.029112800, 0.011916730, 0.042140661, 0.069295755, 0.107794376, 0.152313092, 0.173262903, 0.146049019, 0.081468221, 0.018995044, -0.010737991, -0.011643356, -0.011646296, -0.036267541, -0.085662886, -0.134520303, -0.160461384, -0.161825311, -0.152283697, -0.154156158, -0.181713963, -0.209412864, -0.181937365, -0.085633491, 0.032407979, 0.144705668, 0.268905389, 0.377558099, 0.376740918, 0.239578005, 0.079722159, 0.018318959, 0.047602250, 0.078613967, 0.058928141, 0.006910763, -0.032287460, -0.031831837, 0.004232879, 0.046441148, 0.064266272, 0.054177910, 0.034733123, 0.018324838, -0.003703769, -0.042543372, -0.090548334, -0.133247500, -0.163644861, -0.181452348, -0.191740595, -0.196411459, -0.189923985, -0.167995320, -0.132847728, -0.091677102, -0.047073141, 0.011999036, 0.095874707, 0.182660482, 0.216676367, 0.164144576, 0.060853513, -0.022754664, -0.057911074, -0.074507487, -0.104384557, -0.137136457, -0.136989482, -0.085201385, -0.000693722, 0.079337084, 0.138991281, 0.187995673, 0.216097286, 0.187237282, 0.108405792, 0.053075598, 0.077476381, 0.145772706, 0.170420407, 0.108402852, -0.000646690, -0.079451725, -0.087608835, -0.056212044, -0.058011017, -0.124517187, -0.173063017, -0.076591592, 0.150772794, 0.317095540, 0.264019942, 0.050888611, -0.134655520, -0.193774729, -0.172833736, -0.146204813, -0.129837681, -0.108611557, -0.080333574, -0.056505994, -0.047608129, -0.045241833, -0.022166764, 0.032325673, 0.094848822, 0.142277642, 0.179632798, 0.209251192, 0.199142254, 0.126886424, 0.031670165, -0.027475499, -0.042575707, -0.044906730, -0.050083188, -0.052017378, -0.048216606, -0.044930246, -0.046843860, -0.050615237, -0.050300711, -0.045632786, -0.042252362, -0.047414123, -0.062235078, -0.077041335, -0.080036685, -0.071423952, -0.063046379, -0.058360818, -0.044265919, -0.011452289, 0.034647877, 0.089863431, 0.153312522, 0.200944167, 0.189900469, 0.113370606, 0.022666479, -0.021722899, -0.003727285, 0.038566230, 0.044066033, -0.016778662, -0.109972545, -0.170449802, -0.167613185, -0.130384428, -0.108690923, -0.117765158, -0.130422641, -0.119258423, -0.082855665, -0.035171108, 0.010100119, 0.044559869, 0.062870009, 0.062358537, 0.043087180, 0.013380600, -0.007974861, -0.016179004, -0.029195106, -0.055283162, -0.082499985, -0.100136981, -0.102894231, -0.086200815, -0.053637042, -0.018833372, 0.006690300, 0.024236171, 0.049289523, 0.103367490, 0.184462395, 0.241168275, 0.212220086, 0.108349942, 0.019203748, 0.009738561, 0.044071912, 0.042637436, -0.015491161, -0.069204630, -0.048922086, 0.038195853, 0.118608794, 0.140158263, 0.113955567, 0.075891991, 0.043866147, 0.017490020, 0.000861273, 0.004153512, 0.016437680, 0.003662616, -0.046855618, -0.088426016, -0.042816746, 0.108152995, 0.264431471, 0.287535935, 0.155046826, -0.013733340, -0.104505077, -0.117641699, -0.113059019, -0.113629282, -0.100674909, -0.069283997, -0.039133553, -0.019080289, -0.001484447, 0.015111966, 0.018474753, -0.001749002, -0.033595537, -0.052840438, -0.049903878, -0.032622562, -0.015426492, -0.013195412, -0.030852984, -0.052667008, -0.058005138, -0.044001364, -0.020082659, 0.000499715, 0.002724916, -0.016778662, -0.040750278, -0.046355903, -0.031155752, -0.016655203, -0.018953891, -0.025200327, -0.013774493, 0.014177205, 0.043125393, 0.069204630, 0.095313262, 0.105469232, 0.073634456, 0.007210592, -0.055430137, -0.093373193, -0.111427597, -0.114552285, -0.105051823, -0.093070425, -0.086856323, -0.073140620, -0.034750760, 0.007078314, 0.009753258, -0.027913485, -0.065112847, -0.078208316, -0.079795646, -0.080180720, -0.067196952, -0.027748873, 0.036279299, 0.112715098, 0.187146158, 0.241700324, 0.250095534, 0.195949958, 0.106689124, 0.043492831, 0.035914802, 0.049430619, 0.035121137, -0.013506999, -0.063572550, -0.079969076, -0.056276713, -0.020746986, -0.006431624, -0.016431801, -0.028665996, -0.027404951, -0.016575836, -0.006802001, -0.001666696, 0.002695521, 0.007898434, 0.010391130, 0.008515729, 0.003850744, -0.000996490, -0.004109420, -0.005611504, -0.005064757, -0.001061159, 0.006108279, 0.012804459, 0.014403546, 0.012195982, 0.011281798, 0.010535165, 0.005802571, -0.001284561, -0.006987190, -0.009568070, -0.007736762, -0.003747862, -0.004065327, -0.011352346, -0.021399554, -0.028589569, -0.031537887, -0.032102271, -0.028081036, -0.012484053, 0.016487651, 0.043548681, 0.042734440, 0.011020183, -0.020952750, -0.028474929, -0.020358972, -0.019991534, -0.037119996, -0.059486646, -0.069666132, -0.067778973, -0.066482654, -0.070209939, -0.071373981, -0.062775945, -0.049418861, -0.041946654, -0.037369854, -0.012798580, 0.060371435, 0.178927318, 0.278641011, 0.282532908, 0.193016338, 0.095004615, 0.054222003, 0.050136099, 0.024968106, -0.030238629, -0.065395039, -0.042167116, 0.018410084, 0.072123553, 0.096394998, 0.086609405, 0.048354762, 0.001181679, -0.029562544, -0.027278553, 0.001416839, 0.025729437, 0.022551838, 0.004988330, 0.000728996, 0.014641646, 0.029333263, 0.025955778, -0.005646778, -0.059122148, -0.109578652, -0.134199898, -0.135405092, -0.129434969, -0.117965043, -0.095807098, -0.075371700, -0.071726721, -0.074554519, -0.060565442, -0.026937571, 0.003177599, 0.006634450, -0.012730971, -0.028436716, -0.025617736, -0.011696267, 0.004550345, 0.016940334, 0.017642874, 0.003850744, -0.019209627, -0.038154700, -0.039891944, -0.022102095, 0.008980170, 0.041749708, 0.064527887, 0.072249951, 0.065168698, 0.048107844, 0.028563114, 0.011755057, 0.002104681, 0.001196376, 0.002401571, -0.000217523, -0.004168210, -0.006099461, -0.006863731, -0.010758567, -0.022948670, -0.041599793, -0.054554166, -0.046867376, -0.011008425, 0.046679248, 0.101627307, 0.118599975, 0.079031376, -0.000884789, -0.082917394, -0.132747785, -0.140425757, -0.122262591, -0.098967060, -0.076421101, -0.049365950, -0.008483395, 0.057969864, 0.148015544, 0.225497804, 0.240565677, 0.182660482, 0.095889404, 0.034865400, 0.016284826, 0.018221956, 0.017610540, 0.012439961, 0.009909052, 0.012725092, 0.014418244, 0.005796692, -0.007598606, -0.011211250, -0.003547976, 0.004147633, 0.003512702, -0.000723117, 0.001834248, 0.010658624, 0.015823324, 0.010755628, -0.004456281, -0.023263197, -0.033801302, -0.030582550, -0.021620017, -0.014068443, -0.001787216, 0.021043875, 0.041029530, 0.039812578, 0.019256659, -0.006108279, -0.025388455, -0.035406268, -0.039312863, -0.039753788, -0.039359895, -0.043945513, -0.055876941, -0.068948894, -0.071227006, -0.052972716, -0.017343045, 0.017005003, 0.029101042, 0.014309482, -0.011946125, -0.032469708, -0.043431101, -0.050256618, -0.055871062, -0.054213184, -0.039233496, -0.017636995, -0.007107709, -0.020758744, -0.049604049, -0.065968242, -0.052035015, -0.019183172, 0.007489844, 0.015514677, 0.010837934, 0.008489274, 0.021755234, 0.052631734, 0.087990970, 0.105536841, 0.090836405, 0.054298430, 0.025406092, 0.026549557, 0.051317778, 0.072555659, 0.076194759, 0.069139961, 0.059095692, 0.049107274, 0.038392799, 0.024691794, 0.010591016, -0.001607906, -0.015067873, -0.033175188, -0.052052652, -0.060280311, -0.051176682, -0.034259863, -0.027484318, -0.036682011, -0.049289523, -0.050888611, -0.038580927, -0.019453606, -0.006040671, -0.004512131, -0.007733822, -0.009647436, -0.010920240, -0.008909622, -0.001743123, 0.006522749, 0.012942615, 0.015649894, 0.014003774, 0.012586936, 0.012366473, 0.005635020, -0.008777345, -0.017745757, -0.012110737, 0.000767209, 0.010758567, 0.014782742, 0.011702146, 0.005317554, 0.006581539, 0.020638224, 0.039039489, 0.046773312, 0.034900674, 0.012087221, -0.002389813, -0.002439784, 0.000035274, -0.003780196, -0.011128944, -0.018806916, -0.025059231, -0.030376785, -0.038551532, -0.044386438, -0.038107668, -0.022396045, -0.004900145, 0.012954373, 0.028542537, 0.035709037, 0.034039401, 0.030791254, 0.032525559, 0.036981840, 0.036505641, 0.029189227, 0.018809856, 0.008215900, -0.000599658, -0.006152372, -0.006657966, -0.000411530, 0.006846094, 0.004911903, -0.004018295, -0.007360506, -0.003189357, -0.002154653, -0.012278288, -0.031552585, -0.051385386, -0.066641387, -0.079245960, -0.085833377, -0.074451636, -0.045303562, -0.019477122, -0.012657484, -0.012645726, -0.001578511, 0.014944414, 0.022202038, 0.019218446, 0.014397667, 0.015006144, 0.023948100, 0.039048308, 0.050309529, 0.044509897, 0.022260828, 0.000358619, -0.007195894, -0.000914184, 0.011284738, 0.023260257, 0.030500244, 0.030350330, 0.024118591, 0.012210680, -0.007239987, -0.028280922, -0.036288118, -0.022933973, 0.004256395, 0.024941651, 0.021058572, -0.000199886, -0.009715045, 0.004368096, 0.021155576, 0.020755804, 0.007604485, -0.004403370, -0.007883737, -0.005170579, -0.003118809, -0.003636161, -0.005393981, -0.006102400, -0.000717238, 0.011049578, 0.022010970, 0.026379066, 0.026179180, 0.026617165, 0.026649500, 0.020238452, 0.004847234, -0.016966790, -0.041035409, -0.061265043, -0.067473265, -0.051197258, -0.018124952, 0.009329971, 0.010011934, -0.013160138, -0.035662005, -0.038522137, -0.023530691, -0.001599088, 0.020655861, 0.038939546, 0.048384157, 0.047987325, 0.040891374, 0.030109291, 0.015902691, -0.001131707, -0.015053176, -0.019509456, -0.015829203, -0.009668013, -0.002448603, 0.006766727, 0.014532884, 0.017598782, 0.018166105, 0.015158998, 0.004544466, -0.007407538, -0.011258282, -0.009779714, -0.011049578, -0.015305972, -0.017122583, -0.014535824, -0.010038390, -0.005981881, -0.003947747, -0.004177028, -0.004385733, -0.004262274, -0.007431054, -0.013583426, -0.015167816, -0.009106569, -0.001560874, 0.001972404, 0.000123459, -0.005379284, -0.008718555, -0.004750231, 0.004006537, 0.008927259, 0.007877858, 0.007081254, 0.004544466, -0.005837845, -0.015023781, -0.011558111, -0.000364498, 0.010008995, 0.018609970, 0.024236171, 0.023642392, 0.017293074, 0.010158909, 0.006684421, 0.006825517, 0.009926689, 0.015549951, 0.016508228, 0.006161190, -0.006710877, -0.009917870, -0.005623262, 0.000490896, 0.007336990, 0.010329400, 0.003800773, -0.014527005, -0.042419913, -0.066988248, -0.070495070, -0.050009700, -0.024585972, -0.012957313, -0.009371124, 0.001728426, 0.018762824, 0.029086345, 0.029086345, 0.027228581, 0.030861802, 0.033131096, 0.021273156, 0.000320405, -0.009909052, -0.005740842, 0.000617295, 0.005252885, 0.009188875, 0.009432853, 0.006228799, 0.006728514, 0.021346643, 0.053983903, 0.088828727, 0.098370342, 0.074792618, 0.040379901, 0.018924496, 0.010749749, 0.000399772, -0.023507175, -0.057958106, -0.089739972, -0.109452254, -0.115566412, -0.104560927, -0.074857287, -0.038880756, -0.011105428, 0.006443382, 0.014776863, 0.012290046, 0.005376344, 0.006481596, 0.017337166, 0.024706491, 0.015450008, -0.005199974, -0.017657572, -0.011522837, 0.006081824, 0.020949811, 0.024453694, 0.018880404, 0.009515159, -0.001302198, -0.010955514, -0.014856229, -0.008600975, 0.002604396, 0.002877770, -0.010861450, -0.015882114, 0.009418156, 0.051655820, 0.072355773, 0.055139126, 0.022413682, 0.000896547, -0.004682622, -0.005761418, -0.013054316, -0.022463653, -0.023142677, -0.016164306, -0.008839074, 0.000267494, 0.012360594, 0.019080289, 0.015329488, 0.006481596, 0.003636161, 0.017613479, 0.047158386, 0.074331117, 0.079049013, 0.057002769, 0.022190280, -0.005799632, -0.015820385, -0.011493442, -0.006405169, -0.012022552, -0.032743082, -0.068469755, -0.107923714, -0.121545354, -0.084325414, -0.013021982, 0.040412235, 0.042405216, 0.008962533, -0.018895101, -0.020132630, -0.009656255, -0.009206512, -0.021473042, -0.035664944, -0.037149391, -0.020232573, 0.001416839, 0.011496381, 0.008962533, 0.002713158, 0.005170579, 0.026302639, 0.057552455, 0.069898352, 0.043210639, -0.005723205, -0.037505071, -0.033186946, -0.008842014, 0.009994297, 0.011543413, 0.002345720, -0.004753170, -0.006002457, -0.002710218, 0.003283421, 0.006020094, 0.003847804, 0.001554995, -0.002113500, -0.010314703, -0.015050236, -0.008359936, 0.002560304, 0.006881368, 0.005373405, 0.005000088, 0.008509850, 0.014738649, 0.019979776, 0.018933315, 0.011140702, 0.000743693, -0.010235336, -0.020335456, -0.026164483, -0.026508404, -0.023157375, -0.018586454, -0.014056685, -0.007966043, 0.003565613, 0.023674727, 0.046073711, 0.055706450, 0.048163695, 0.034968283, 0.025250298, 0.017478262, 0.007919011, -0.003883078, -0.014018472, -0.015411794, -0.008086562, -0.001740184, 0.000044092, 0.002736674, 0.008330541, 0.013809767, 0.015147240, 0.011399378, 0.006020094, -0.000079366, -0.006984250, -0.011308254, -0.012492872, -0.012863249, -0.010488133, -0.002769008, 0.005082394, 0.005852543, 0.001293380, -0.001440355, 0.000385074, 0.004318124, 0.006746151, 0.005485106, 0.003580310, 0.003915413, 0.001854824, -0.003759620, -0.006637389, -0.006381653, -0.009230028, -0.015273638, -0.016508228, -0.011117186, -0.007848463, -0.012748608, -0.021722899, -0.027216823, -0.027637172, -0.025864654, -0.024638883, -0.024791736, -0.021367220, -0.011563990, -0.001984162, 0.002416268, 0.005729084, 0.011005485, 0.009835564, -0.003539157, -0.018027949, -0.020758744, -0.011628659, 0.000573202, 0.007942527, 0.009088932, 0.006807880, 0.005511561, 0.007863160, 0.010796781, 0.011978459, 0.012654544, 0.010902603, 0.007342869, 0.009432853, 0.018803977, 0.029192167, 0.035182866, 0.031993510, 0.018271927, 0.000878910, -0.011549292, -0.015793929, -0.012742729, -0.005008907, 0.001369807, 0.000820120, -0.005361647, -0.011569869, -0.015282456, -0.019521214, -0.023048613, -0.017636995, -0.003074716, 0.008927259, 0.009985479, 0.005417497, 0.004462160, 0.008959594, 0.016534683, 0.021005661, 0.015358883, 0.005105910, 0.002557364, 0.007392841, 0.008301146, -0.000379195, -0.011972580, -0.016622868, -0.013089590, -0.007583908, -0.003639100, 0.000684903, 0.008333480, 0.019632915, 0.028786516, 0.028107492, 0.017313650, 0.002069407, -0.011469926, -0.019585883, -0.023060371, -0.022181461, -0.014259511, -0.001046462, 0.011866758, 0.022975126, 0.031723076, 0.033419167, 0.025215024, 0.012340018, 0.001819550, -0.006055368, -0.013324750, -0.019574125, -0.022469532, -0.019712282, -0.014377091, -0.009797351, -0.006108279, -0.006655026, -0.011237706, -0.014962051, -0.016843331, -0.015250122, -0.009282939, -0.004767868, -0.004953056, -0.004382793, 0.001410960, 0.007601545, 0.008136534, 0.004923661, 0.001607906, -0.001822490, -0.003130567, 0.000708419, 0.006610934, 0.011167158, 0.013421753, 0.011605143, 0.008668583, 0.008947836, 0.009085992, 0.006311105, 0.005676173, 0.010858510, 0.016261310, 0.012589875, -0.000776028, -0.014770984, -0.020344274, -0.014265390, -0.003280481, 0.000999430, -0.002454482, -0.006305226, -0.009147722, -0.013277718, -0.016949153, -0.015294214, -0.006184706, 0.004759049, 0.010255913, 0.008107139, 0.000464441, -0.005958365, -0.005008907, 0.001472689, 0.007122407, 0.008606854, 0.006922521, 0.005420437, 0.006316984, 0.007739701, 0.008562761, 0.009526917, 0.007651516, 0.002101742, -0.000861273, 0.001895977, 0.004285790, 0.000970035, -0.003980082, -0.005076515, -0.003730225, -0.002607336, -0.000840697, 0.000599658, -0.001646120, -0.005247006, -0.004550345, -0.000617295, 0.002948318, 0.006552144, 0.008121836, 0.005438074, 0.004294608, 0.007260563, 0.006234678, -0.002425087, -0.012387050, -0.018909799, -0.022254949, -0.021167334, -0.013895013, -0.005100031, -0.000634932, -0.000267494, -0.001510903, -0.002307507, -0.000970035, 0.002184048, 0.004873690, 0.005990699, 0.007345809, 0.008039530, 0.003027684, -0.006225859, -0.011111307, -0.008177687, -0.001613785, 0.003245207, 0.004817839, 0.003988900, -0.001114070, -0.009668013, -0.013845041, -0.011634538, -0.009970781, -0.010808539, -0.011710965, -0.013512878, -0.013069014, -0.004238758, 0.007798491, 0.010261792, 0.002833677, -0.002107621, 0.000681964, 0.007483965, 0.014917959, 0.019150837, 0.019953321, 0.023592421, 0.033686661, 0.045253591, 0.049618747, 0.042913749, 0.026434917, 0.005508622, -0.008265872, -0.008559822, -0.005529198, -0.011464047, -0.023507175, -0.029733035, -0.025591280, -0.016846270, -0.010197123, -0.007436933, -0.009044839, -0.016787480, -0.026899357, -0.032428555, -0.033671964, -0.031508492, -0.022742906, -0.008401089, 0.008318783, 0.025873472, 0.040135922, 0.043957271, 0.035132895, 0.022040365, 0.013462906, 0.010008995, 0.009282939, 0.008286448, 0.003236389, -0.007025403, -0.018871585, -0.025832319, -0.024242050, -0.015887993, -0.005050060, 0.004209363, 0.011852061, 0.020949811, 0.028874701, 0.028857064, 0.020056203, 0.008318783, -0.000402711, -0.002677884, 0.002654368, 0.008756768, 0.004041811, -0.010717414, -0.022049184, -0.020691135, -0.010332340, -0.002795464, -0.005908393, -0.015911509, -0.022428379, -0.021534771, -0.020708772, -0.025126839, -0.029130437, -0.026819991, -0.019362481, -0.010455799, -0.001372746, 0.008139473, 0.016023210, 0.017096128, 0.010138333, 0.003836046, 0.004274032, 0.006434564, 0.008894925, 0.015817445, 0.025388455, 0.034080554, 0.037916601, 0.026849386, 0.001117010, -0.016572897, -0.011619840, 0.001660817, 0.007739701, 0.007375204, 0.006446322, 0.008683281, 0.012237135, 0.013215989, 0.011525776, 0.006972492, 0.001208134, -0.000555565, 0.000446804, -0.002986531, -0.012575178, -0.020964508, -0.019286054, -0.010802660, -0.007657395, -0.009994297, -0.008909622, -0.004723775, -0.000643750, 0.001951827, -0.003727285, -0.017731059, -0.026490767, -0.018069102, 0.003771378, 0.018057344, 0.009050718, -0.011937306, -0.020835171, -0.006840215, 0.018471813, 0.032396221, 0.024824071, 0.004021235, -0.016922697, -0.026340853, -0.021373099, -0.014171326, -0.015267759, -0.020226694, -0.022349013, -0.021916906, -0.017857458, -0.004109420, 0.019180232, 0.038483924, 0.038839603, 0.020041506, 0.000846576, 0.002066468, 0.019750495, 0.031978812, 0.031828898, 0.028865882, 0.026628923, 0.020347214, 0.008924320, -0.000161672, 0.001984162, 0.011602203, 0.013295355, -0.000238099, -0.018795158, -0.028868822, -0.027772389, -0.019268417, -0.009044839, -0.005720265, -0.011775634, -0.019865136, -0.021631775, -0.013962621, -0.004082964, -0.003715527, -0.010605713, -0.010937877, -0.001828369, 0.007913132, 0.012866188, 0.011008425, 0.005605625, 0.006649147, 0.012792701, 0.011737420, 0.004318124, 0.002992410, 0.010591016, 0.018771642, 0.020209057, 0.012525206, 0.000435046, -0.006167069, -0.004958935, -0.001316896, 0.000914184, -0.000643750, -0.005734963, -0.010934937, -0.015467645, -0.021846358, -0.030188657, -0.037187605, -0.037931298, -0.028586630, -0.014036109, -0.005299917, -0.006073005, -0.010126575, -0.010967272, -0.009003686, -0.005111789, 0.003412759, 0.013207170, 0.016522925, 0.012401747, 0.006214101, 0.005050060, 0.012254772, 0.020667619, 0.021523013, 0.018166105, 0.017034398, 0.016608171, 0.015635196, 0.017160796, 0.018207258, 0.010664503, -0.000967095, -0.003362787, 0.001834248, 0.001751942, -0.006275831, -0.010884966, -0.001431536, 0.014556400, 0.018680518, 0.007063617, -0.006822578, -0.011311193, -0.005473348, 0.004970693, 0.011875577, 0.011055457, 0.004938359, -0.002836617, -0.010523407, -0.016152548, -0.015738079, -0.009235907, -0.002586759, 0.001164042, 0.003136446, 0.005946607, 0.011272980, 0.013412935, 0.006896065, -0.001119949, -0.000670206, 0.006117098, 0.009632739, 0.007025403, 0.004200544, 0.004382793, 0.005111789, 0.005044181, 0.003559734, 0.000155793, -0.003606766, -0.005999518, -0.005905454, -0.004897206, -0.007148862, -0.013997895, -0.023583602, -0.031511432, -0.032105211, -0.027734175, -0.026032205, -0.027158033, -0.028374986, -0.030188657, -0.032437374, -0.034947706, -0.036646737, -0.034353927, -0.029145135, -0.024938711, -0.020749925, -0.012654544, 0.000029395, 0.012445840, 0.021514195, 0.034524418, 0.054709960, 0.066276889, 0.057452512, 0.046723340, 0.060130396, 0.088943368, 0.095163348, 0.060968153, 0.011428773, -0.018745187, -0.023918705, -0.024368449, -0.035218140, -0.049392406, -0.054413070, -0.052005620, -0.049074940, -0.044409954, -0.033448562, -0.015820385, 0.003459791, 0.017957401, 0.025312028, 0.027404951, 0.026787656, 0.023274955, 0.015508798, 0.007128286, 0.009083053, 0.037137633, 0.094745939, 0.151451819, 0.165875941, 0.136874842, 0.099313921, 0.071235824, 0.043351735, 0.012601633, -0.006851973, -0.002301628, 0.016696356, 0.023466022, 0.005011846, -0.026905236, -0.053043264, -0.064583738, -0.069783712, -0.080213055, -0.091012775, -0.088772877, -0.070750807, -0.042225906, -0.013789191, -0.011484623, -0.056711759, -0.125522496, -0.167865982, -0.169914813, -0.158838780, -0.154350165, -0.148894454, -0.131225124, -0.099663721, -0.052349542, 0.002736674, 0.035935378, 0.024568335, -0.017440049, -0.048551709, -0.023348442, 0.079369419, 0.220803424, 0.304752582, 0.252908634, 0.099149309, -0.019891591, -0.011143642, 0.077479321, 0.142104211, 0.144661575, 0.116119038, 0.087876329, 0.060774147, 0.028448474, -0.004606195, -0.032122848, -0.051752823, -0.063719525, -0.072238194, -0.082567594, -0.095045768, -0.103726109, -0.100316290, -0.078478750, -0.038848422, 0.001984162, 0.011693328, -0.029415569, -0.096004045, -0.133218105, -0.106933103, -0.029392053, 0.056961616, 0.113056080, 0.125155059, 0.110360559, 0.106221744, 0.138156464, 0.191564225, 0.221353110, 0.193028096, 0.113552855, 0.017616419, -0.062958194, -0.111083676, -0.126627748, -0.126369072, -0.129949382, -0.138609147, -0.135763711, -0.111098373, -0.070154089, -0.022954549, 0.011793271, 0.009127145, -0.025485458, -0.050768091, -0.036082353, 0.009006626, 0.054680565, 0.090133865, 0.125548951, 0.155637666, 0.158080389, 0.134949470, 0.116618753, 0.117826887, 0.120131454, 0.099499109, 0.051059102, -0.012957313, -0.080980264, -0.150913890, -0.210288835, -0.226700059, -0.185170814, -0.115290099, -0.062249775, -0.041358754, -0.031011717, -0.011852061, 0.007287019, 0.017825123, 0.034730183, 0.068263991, 0.100604361, 0.109358190, 0.097594314, 0.085363058, 0.071238764, 0.027246218, -0.048501737, -0.111283562, -0.126389648, -0.107665038, -0.086074416, -0.069866018, -0.047840350, -0.019006802, 0.002689642, 0.013809767, 0.027266795, 0.050136099, 0.073037737, 0.079384116, 0.054762871, -0.004024174, -0.083067309, -0.161166864, -0.222205565, -0.257076844, -0.263285067, -0.245859715, -0.219183760, -0.196179239, -0.160443747, -0.072155888, 0.067896553, 0.185632316, 0.218648771, 0.211970229, 0.249369477, 0.311398790, 0.298726609, 0.191869933, 0.094222708, 0.089610634, 0.136504465, 0.149937977, 0.117324233, 0.078040765, 0.045000794, 0.000684903, -0.060556624, -0.124778803, -0.176220039, -0.202713746, -0.199709577, -0.177313533, -0.143612174, -0.082970305, 0.020846929, 0.142718566, 0.226276771, 0.241138880, 0.216141378, 0.209071883, 0.246382946, 0.295402035, 0.297245101, 0.231097550, 0.138629723, 0.076938453, 0.062091042, 0.065812448, 0.050450625, -0.000526170, -0.076529862, -0.151501790, -0.202901874, -0.229871779, -0.249863313, -0.277159503, -0.312380583, -0.338683222, -0.322151478, -0.241538651, -0.118385392, -0.000523231, 0.075345244, 0.106060072, 0.119490644, 0.138997160, 0.152239604, 0.135560886, 0.096929987, 0.063255084, 0.035373934, -0.009297636, -0.072323439, -0.123182655, -0.139870192, -0.137574443, -0.139899587, -0.145255354, -0.142794993, -0.136366309, -0.140799073, -0.162436727, -0.179280058, -0.152560010, -0.063640158, 0.064060507, 0.171766698, 0.208066574, 0.172378114, 0.106110043, 0.061170979, 0.079148956, 0.157842290, 0.234457398, 0.237687907, 0.151393029, 0.016863907, -0.103802536, -0.163271545, -0.158192090, -0.137148215, -0.149253073, -0.174406368, -0.144964344, -0.041796740, 0.069087050, 0.107450455, 0.070227576, 0.033072306, 0.054662928, 0.102811925, 0.104446287, 0.045515206, -0.025491337, -0.070642045, -0.087126757, -0.077423470, -0.049795117, -0.045638665, -0.108249999, -0.202311034, -0.213933814, -0.083678724, 0.085712858, 0.129429090, 0.033968853, -0.025794106, 0.094631299, 0.312592227, 0.416800414, 0.331610787, 0.189991593, 0.144990799, 0.203466257, 0.267312181, 0.259496052, 0.179635737, 0.080633403, 0.014856229, -0.011334709, -0.038322251, -0.101906559, -0.186087938, -0.239930745, -0.234042928, -0.186737567, -0.137236400, -0.103585013, -0.068737250, -0.002336902, 0.095372052, 0.170523290, 0.167804253, 0.105375168, 0.053775199, 0.043436980, 0.038530956, 0.003753741, -0.047349454, -0.083449444, -0.097632527, -0.105266407, -0.122336079, -0.149488233, -0.172381053, -0.177378202, -0.160434928, -0.128582515, -0.100069372, -0.091735892, -0.101639065, -0.108120661, -0.093240915, -0.064977630, -0.042581586, -0.029765369, -0.014130173, 0.023815823, 0.095986408, 0.173689130, 0.190320817, 0.117059678, 0.014650464, -0.032940028, -0.015150179, 0.014506429, 0.025203266, 0.045885583, 0.104328707, 0.156034498, 0.121142642, -0.002821919, -0.116160191, -0.129173354, -0.061576630, -0.002983592, -0.000555565, -0.016434740, 0.006746151, 0.065492043, 0.107279964, 0.103208757, 0.071676749, 0.042840262, 0.023216165, 0.002037073, -0.014697496, -0.007251745, 0.023248499, 0.054571803, 0.068440361, 0.061676573, 0.043766204, 0.025999871, 0.012992587, 0.000975914, -0.022099155, -0.063454970, -0.107997202, -0.126604232, -0.106750854, -0.069463306, -0.048828022, -0.051082618, -0.048381218, -0.020946871, 0.018177863, 0.045200680, 0.052684645, 0.050794547, 0.046738038, 0.034900674, 0.013298295, -0.009582767, -0.028363228, -0.043645685, -0.053781078, -0.052490638, -0.033325103, 0.001340412, 0.038563290, 0.065794811, 0.074389907, 0.057202655, 0.019709342, -0.011146581, -0.007692669, 0.020015050, 0.027152154, -0.005000088, -0.038169397, -0.029318565, 0.013221868, 0.040812007, 0.016978548, -0.047822713, -0.115043181, -0.153982728, -0.145202443, -0.080289482, 0.020079719, 0.110278253, 0.157045686, 0.160346743, 0.135825441, 0.099431501, 0.068984168, 0.054836358, 0.050286013, 0.041911380, 0.017340106, -0.028912914, -0.080145446, -0.105010670, -0.088937489, -0.044007243, 0.006510991, 0.038604443, 0.036537975, 0.007686790, -0.021708202, -0.035235777, -0.048869175, -0.089737032, -0.149782183, -0.187525353, -0.175473406, -0.125137422, -0.071394557, -0.043240034, -0.041614491, -0.037513889, -0.003245207, 0.046776251, 0.066400348, 0.040926648, 0.009121266, 0.001713728, -0.001122889, -0.017783970, -0.019265478, 0.015899751, 0.049224854, 0.037014174, -0.006863731, -0.040997196, -0.045379989, -0.020012111, 0.024397844, 0.073287595, 0.134708431, 0.228834136, 0.327668918, 0.357728237, 0.291745298, 0.191940481, 0.140102412, 0.151828075, 0.172410448, 0.147865630, 0.080457033, 0.013874436, -0.011708025, 0.006660905, 0.023795246, -0.018736368, -0.122000976, -0.215177222, -0.235559710, -0.194444934, -0.149796881, -0.139934861, -0.157148568, -0.173445152, -0.174279970, -0.163203937, -0.147251274, -0.131269217, -0.118191385, -0.103055903, -0.073640335, -0.021281974, 0.047672798, 0.103852508, 0.112203625, 0.071814906, 0.021232003, -0.003636161, -0.002645549, 0.001237529, -0.003783136, -0.008462818, -0.002319265, 0.009250604, 0.010582197, -0.003077656, -0.016734569, -0.013210110, 0.007542755, 0.033680782, 0.059895236, 0.086509462, 0.102168175, 0.087938059, 0.045230075, 0.003224631, -0.012825035, -0.008133594, -0.001572632, 0.002651428, 0.008236477, 0.007801431, -0.005173519, -0.019144958, -0.018912738, -0.008580398, -0.010191244, -0.038627959, -0.081412371, -0.110807363, -0.107764981, -0.070830173, -0.013856799, 0.047281845, 0.102800167, 0.141413429, 0.151122595, 0.127315591, 0.074578035, 0.008404028, -0.048704563, -0.080183660, -0.082020847, -0.063310934, -0.044215947, -0.042737379, -0.068916559, -0.125022781, -0.183048496, -0.185015021, -0.102744316, 0.017113764, 0.093940516, 0.104772571, 0.111942010, 0.171017126, 0.235750777, 0.207599193, 0.076021329, -0.051902738, -0.085956836, -0.054856935, -0.035400389, -0.047687496, -0.063413817, -0.061306196, -0.040494541, -0.002921862, 0.055703510, 0.131086968, 0.197804782, 0.218969176, 0.172110619, 0.079695703, -0.001957706, -0.037757868, -0.036476246, -0.025044533, -0.019189051, -0.014059625, -0.002913044, 0.003750801, -0.006222920, -0.025050412, -0.035911862, -0.037172907, -0.042508098, -0.060691841, -0.085930381, -0.104134700, -0.105577994, -0.092558952, -0.071121184, -0.044536353, -0.019165535, 0.000358619, 0.023260257, 0.055585930, 0.078766821, 0.074904319, 0.056923403, 0.047972627, 0.044548111, 0.025867593, -0.003436275, -0.013395298, 0.006649147, 0.031549645, 0.031634891, 0.007930769, -0.015811566, -0.030335632, -0.048913267, -0.084034404, -0.128435540, -0.155470114, -0.137736115, -0.066894184, 0.033328042, 0.104152337, 0.091186206, 0.010158909, -0.059804112, -0.064904143, -0.022898699, 0.021446586, 0.049821572, 0.070583255, 0.088273162, 0.091359636, 0.068234596, 0.028798274, 0.003168780, 0.008259993, 0.026916994, 0.034180497, 0.026379066, 0.011787392, -0.007234108, -0.024647701, -0.022296102, 0.004876629, 0.032299218, 0.031767168, 0.003439214, -0.026852325, -0.041205900, -0.048228364, -0.060615414, -0.072461595, -0.073660911, -0.068860709, -0.067984738, -0.072620328, -0.072000094, -0.048901509, -0.009782653, 0.002269293, -0.037484494, -0.085968594, -0.085145535, -0.042901991, -0.011822666, -0.005432195, 0.015617559, 0.068510908, 0.104834300, 0.076588652, 0.010382311, -0.026405522, -0.006607994, 0.045403505, 0.093981669, 0.114555224, 0.103288124, 0.080271845, 0.073966619, 0.103723170, 0.163021688, 0.207928417, 0.190744105, 0.117685791, 0.042502219, -0.001525600, -0.027152154, -0.047264208, -0.049486469, -0.030970564, -0.014624009, -0.014362393, -0.018313080, -0.014926777, -0.010444041, -0.015858598, -0.032813630, -0.056688243, -0.082311857, -0.102194630, -0.108376397, -0.101642004, -0.092065116, -0.086092053, -0.081344762, -0.076138909, -0.069504459, -0.054712899, -0.032672534, -0.014838592, -0.000226341, 0.021593561, 0.048360641, 0.067049977, 0.066462078, 0.046435269, 0.022831090, 0.012622210, 0.012642786, 0.008680341, 0.001031764, 0.003962445, 0.022463653, 0.043645685, 0.051770460, 0.042331728, 0.023586542, 0.010893784, 0.011555171, 0.007633879, -0.028283862, -0.086656437, -0.116924461, -0.087550045, -0.026961087, 0.011384681, 0.007992498, -0.016661082, -0.039183525, -0.048833901, -0.036332210, -0.001496205, 0.030482607, 0.031305667, 0.005088273, -0.018057344, -0.018204319, -0.004567982, -0.000273373, -0.009144782, -0.002939499, 0.042361123, 0.107182960, 0.144009007, 0.124464276, 0.071644415, 0.041349936, 0.054965696, 0.076762083, 0.073046556, 0.053034445, 0.039571539, 0.032058179, 0.013759796, -0.017046156, -0.041367573, -0.045491690, -0.044950822, -0.072073582, -0.130804776, -0.184659341, -0.203601474, -0.194871162, -0.179623979, -0.163968206, -0.135631434, -0.077505776, 0.012345897, 0.104854877, 0.156325508, 0.151839833, 0.114566982, 0.071250522, 0.030664856, -0.000293950, -0.005161761, 0.015129603, 0.028927612, 0.016761025, 0.007313474, 0.036255783, 0.081003780, 0.085260175, 0.043254731, 0.008680341, 0.024200897, 0.081288912, 0.142427556, 0.169929511, 0.147330641, 0.096036379, 0.053613526, 0.031338001, 0.008965473, -0.028730665, -0.066897123, -0.084437115, -0.086530039, -0.092112148, -0.101030588, -0.094396139, -0.061162160, -0.012237135, 0.029380295, 0.045623968, 0.031188087, -0.005120608, -0.041514548, -0.055412500, -0.045432900, -0.030462030, -0.023956919, -0.028451413, -0.043507528, -0.061911733, -0.071756116, -0.066905942, -0.051793976, -0.037231697, -0.031723076, -0.034154042, -0.030626642, -0.002842496, 0.052534730, 0.113979083, 0.148047879, 0.134473271, 0.081773929, 0.017610540, -0.033175188, -0.059862902, -0.066647266, -0.064257453, -0.057255566, -0.043513407, -0.020550039, 0.010832055, 0.039583297, 0.046029618, 0.023518933, -0.008803800, -0.026187999, -0.022839909, -0.009820867, -0.001052341, -0.006120037, -0.023674727, -0.041461637, -0.050832760, -0.053131449, -0.050144917, -0.036523278, -0.006854912, 0.023048613, 0.017654632, -0.028460232, -0.060256795, -0.024294961, 0.053375427, 0.101944773, 0.099231615, 0.079093106, 0.069763135, 0.065571409, 0.048395915, 0.018274867, -0.001607906, 0.008797921, 0.041297025, 0.065124605, 0.053319576, 0.008042470, -0.032887117, -0.029636031, 0.013721582, 0.059086874, 0.081956178, 0.078167163, 0.044409954, -0.012301804, -0.061626601, -0.076973727, -0.069992416, -0.070994785, -0.081591680, -0.077276495, -0.051526482, -0.025282633, -0.007578029, 0.018107315, 0.052593520, 0.067164618, 0.048901509, 0.022343134, 0.019424211, 0.050065551, 0.089169709, 0.090430754, 0.038921909, -0.018333657, -0.022293162, 0.021925725, 0.055027426, 0.046911468, 0.022848727, 0.006913702, -0.015073752, -0.060974032, -0.114469979, -0.143497534, -0.134302780, -0.103246971, -0.088837546, -0.123550092, -0.199850673, -0.261553702, -0.245298271, -0.144676273, -0.018601151, 0.071053575, 0.110210645, 0.117800432, 0.111471690, 0.104860756, 0.114766868, 0.141974873, 0.148723963, 0.099037608, 0.029968195, 0.020902779, 0.089081524, 0.176181826, 0.227293838, 0.232867129, 0.199456781, 0.126025150, 0.024068620, -0.071844301, -0.130163965, -0.148283039, -0.151686979, -0.165823030, -0.187319588, -0.192484288, -0.168633192, -0.122377232, -0.065080513, -0.007857281, 0.033351558, 0.047452336, 0.041640946, 0.032887117, 0.030121049, 0.027499015, 0.017204889, 0.012037249, 0.038525077, 0.095771824, 0.140040683, 0.127265619, 0.061359107, -0.011105428, -0.053916295, -0.074398725, -0.089554783, -0.089155012, -0.062570181, -0.029959376, -0.016181943, -0.014086080, 0.005781995, 0.051961528, 0.094284438, 0.104831361, 0.096844742, 0.098376221, 0.107194718, 0.097326819, 0.062802401, 0.025053352, -0.005564472, -0.041238235, -0.086133206, -0.118558822, -0.112118380, -0.071500379, -0.029988771, -0.009033081, -0.001828369, 0.005085334, 0.008506911, -0.006475717, -0.039445140, -0.068587335, -0.078205377, -0.077323527, -0.079983774, -0.081441766, -0.070012993, -0.047566976, -0.024071559, -0.009065416, -0.012466416, -0.031773047, -0.044180673, -0.029918223, 0.001678454, 0.016443559, -0.008524548, -0.056461901, -0.093617171, -0.108470461, -0.109349371, -0.099854789, -0.084534119, -0.090151502, -0.140090654, -0.203807239, -0.210635696, -0.123332569, 0.016705174, 0.128450237, 0.184850409, 0.243049554, 0.352460655, 0.471801384, 0.516325979, 0.447721006, 0.290078602, 0.102597342, -0.039039489, -0.078243590, -0.028607206, 0.030753041, 0.029571362, -0.029345021, -0.080777439, -0.062458480, 0.040033040, 0.192566594, 0.318556471, 0.326122742, 0.188010371, -0.006134735, -0.125216788, -0.125781172, -0.073546271, -0.047713951, -0.062567241, -0.083493536, -0.083155494, -0.070089420, -0.075433429, -0.113890898, -0.158715321, -0.162560186, -0.112668066, -0.054410131, -0.040056556, -0.069451548, -0.099137551, -0.106101225, -0.123741159, -0.178154230, -0.212734499, -0.159282645, -0.062079284, -0.026728866, -0.056564784, -0.044154218, 0.065383281, 0.193360259, 0.232908282, 0.166431507, 0.056967495, -0.025238540, -0.052337784, -0.047784499, -0.054080907, -0.089587118, -0.139846676, -0.176596295, -0.175779114, -0.127468444, -0.050286013, 0.007854342, 0.024903437, 0.057963985, 0.183815705, 0.375776763, 0.499523801, 0.455022722, 0.275757362, 0.076271186, -0.058390213, -0.127909369, -0.183119044, -0.238096498, -0.236080001, -0.130490250, 0.029374416, 0.135763711, 0.136724928, 0.079369419, 0.037831355, 0.033948277, 0.042746198, 0.042587465, 0.035271051, 0.032793053, 0.037710836, 0.040462207, 0.038707326, 0.039445140, 0.041314662, 0.035685521, 0.018836311, -0.003618524, -0.022019789, -0.037696138, -0.066465017, -0.117821008, -0.175926089, -0.210753276, -0.214601081, -0.219812813, -0.259898764, -0.316298935, -0.332386815, -0.284355397, -0.214410013, -0.182410625, -0.191975755, -0.170902485, -0.030964685, 0.227678913, 0.472786116, 0.558713558, 0.488171455, 0.373827875, 0.262467886, 0.122624150, -0.014156628, -0.048190150, 0.039336379, 0.143770907, 0.159861726, 0.075583344, -0.052314268, -0.161640123, -0.217922715, -0.205482754, -0.120866329, -0.002536788, 0.067076433, 0.035159350, -0.048910328, -0.073746157, -0.008048349, 0.039665603, -0.034612603, -0.171237588, -0.215844489, -0.115240128, 0.042319970, 0.162372058, 0.226350259, 0.246147786, 0.228757709, 0.189785828, 0.141519251, 0.082549957, 0.045597512, 0.106401054, 0.269704933, 0.392908164, 0.324708843, 0.107188839, -0.073061253, -0.146683951, -0.236309282, -0.426944626, -0.602182872, -0.591312604, -0.391520721, -0.166093464, -0.058028654, -0.059342610, -0.070985967, -0.049113153, -0.033583779, -0.041349936, -0.010385251, 0.117203713, 0.303509174, 0.438482160, 0.441036585, 0.323092118, 0.162689524, 0.039030671, -0.008389331, 0.004529768, 0.014409425, -0.034844824, -0.119293697, -0.149917400, -0.095333839, -0.046979077, -0.110528110, -0.263096939, -0.367990029, -0.319191403, -0.140528640, 0.046014921, 0.122403687, 0.062564302, -0.038807269, -0.036376303, 0.114264214, 0.273579193, 0.255939258, 0.070265790, -0.071462166, -0.021334885, 0.131175153, 0.197116939, 0.120096180, 0.009812048, -0.019391876, 0.026981663, 0.064054628, 0.051588211, 0.043854389, 0.095386750, 0.154144400, 0.117494724, -0.012210680, -0.104869574, -0.058704739, 0.080277724, 0.181957942, 0.167095834, 0.052881591, -0.092797051, -0.203686720, -0.242341135, -0.212869716, -0.151472395, -0.093667143, -0.050524113, -0.015661652, 0.006663845, -0.010417585, -0.079322387, -0.161184501, -0.195470820, -0.159938153, -0.089754669, -0.043642745, -0.051782218, -0.088514201, -0.099954732, -0.068305144, -0.030359148, -0.016675779, -0.007774975, 0.020605890, 0.044897911, 0.026690653, -0.017554689, -0.018316020, 0.066700177, 0.211608670, 0.374677390, 0.514603432, 0.537175847, 0.353454206, 0.031981752, -0.223651799, -0.290572438, -0.241450466, -0.216505876, -0.255313145, -0.299411512, -0.297015820, -0.250307178, -0.180726291, -0.086791654, 0.030911774, 0.125737079, 0.141857293, 0.080010229, -0.004453341, -0.044615719, 0.007075375, 0.138788456, 0.242970188, 0.195406151, 0.013080772, -0.148462348, -0.183004403, -0.130616648, -0.070080601, -0.012592815, 0.061767697, 0.137609717, 0.180802718, 0.194380265, 0.220133218, 0.275319377, 0.318353645, 0.302483289, 0.237108826, 0.164750113, 0.103770202, 0.045953191, -0.010088361, -0.048266577, -0.057173260, -0.046094287, -0.030867681, -0.022475411, -0.024153865, -0.027834118, -0.029659547, -0.041079502, -0.068507969, -0.097344456, -0.109916695, -0.106401054, -0.097908840, -0.089872249, -0.082793935, -0.082691053, -0.093628929, -0.102356303, -0.089107980, -0.059078055, -0.050353622, -0.092941087, -0.166164012, -0.216223684, -0.211926136, -0.168395092, -0.117218411, -0.068081742, -0.008271751, 0.065092271, 0.121072094, 0.115733964, 0.048116663, -0.021899269, -0.039254073, -0.017889792, -0.004456281, -0.004647348, 0.013874436, 0.063281539, 0.105090037, 0.077964338, -0.036696708, -0.175690929, -0.233349207, -0.153724052, 0.016646384, 0.179065474, 0.270051794, 0.281674574, 0.227723005, 0.129432030, 0.018609970, -0.074095957, -0.129620158, -0.142653897, -0.120246095, -0.068343357, 0.018233714, 0.141339941, 0.279925572, 0.393281481, 0.432129902, 0.363783606, 0.231958823, 0.154702905, 0.192169762, 0.248352411, 0.178642187, -0.018198440, -0.198377984, -0.262891174, -0.245151296, -0.204183495, -0.147648107, -0.080304179, -0.036464488, -0.030720706, -0.027857634, 0.000487957, 0.024477210, -0.000476199, -0.066841273, -0.121668813, -0.130125752, -0.116674603, -0.131233943, -0.181137821, -0.224848175, -0.228854712, -0.196664256, -0.143000758, -0.071200550, 0.014997325, 0.089587118, 0.110234161, 0.061185676, -0.018074981, -0.064716015, -0.050521173, -0.003165841, 0.027910545, 0.021384857, -0.007322293, -0.033504412, -0.041391089, -0.028889398, -0.009859080, -0.002857193, -0.007622121, 0.001466810, 0.051502966, 0.139532149, 0.221567694, 0.243443447, 0.192904637, 0.109561015, 0.042775593, 0.009068355, -0.012087221, -0.044160097, -0.085357179, -0.120013874, -0.143500473, -0.163409702, -0.178245354, -0.172622092, -0.146460549, -0.126075122, -0.129217447, -0.139496875, -0.115545836, -0.019318389, 0.137503895, 0.280754511, 0.341431654, 0.328727138, 0.305743194, 0.291036879, 0.223099173, 0.054495376, -0.149106098, -0.257194424, -0.216529392, -0.097309182, 0.004482736, 0.055956307, 0.074384028, 0.090918711, 0.128076921, 0.162854136, 0.138209375, 0.044930246, -0.050447686, -0.081180150, -0.050212526, -0.008695039, 0.013880315, 0.026246789, 0.033251615, 0.026270305, 0.010426404, -0.001293380, -0.012269470, -0.034306895, -0.065688989, -0.092750019, -0.105583873, -0.103776081, -0.093764146, -0.082091395, -0.070321640, -0.059983421, -0.054077967, -0.049189580, -0.036493883, -0.016505288, 0.000720177, 0.022219675, 0.066629629, 0.109707990, 0.089096222, -0.001690212, -0.086374245, -0.112450543, -0.117200774, -0.144523419, -0.150975620, -0.057984562, 0.106695003, 0.194239169, 0.108385215, -0.061911733, -0.151942715, -0.121592386, -0.058313786, -0.021320188, 0.015070813, 0.088229069, 0.192440196, 0.291651234, 0.352116733, 0.351963879, 0.278467580, 0.142139485, -0.009979600, -0.109478709, -0.114417068, -0.053445975, -0.000987672, -0.000928882, -0.035235777, -0.063987019, -0.069216388, -0.055406621, -0.027572503, 0.011037820, 0.042749137, 0.044506958, 0.015729260, -0.023010400, -0.053707590, -0.071127063, -0.075348184, -0.066808938, -0.054812842, -0.053334274, -0.061394381, -0.069580886, -0.075139479, -0.073314050, -0.059524859, -0.040767915, -0.027454923, -0.025300270, -0.031937659, -0.037169968, -0.035412147, -0.028186858, -0.018092618, -0.011164218, -0.010817357, -0.009691529, -0.001349230, 0.010314703, 0.018759884, 0.019926865, 0.015423552, 0.013789191, 0.016387708, 0.014644585, 0.007413417, 0.001763700, 0.001122889, 0.002698460, 0.001622604, -0.004362217, -0.013312992, -0.019309570, -0.016687537, -0.006963674, 0.003068837, 0.011511079, 0.021108544, 0.029274473, 0.031094023, 0.028195677, 0.024227353, 0.019394816, 0.015511737, 0.015208969, 0.016364192, 0.017545871, 0.020570616, 0.024506605, 0.025896988, 0.023751154, 0.020805776, 0.021334885, 0.027787086, 0.036097051, 0.039574478, 0.038821966, 0.037966572, 0.037540345, 0.036811349, 0.034947706, 0.030203355, 0.020241392, 0.003706709, -0.016537623, -0.033281010, -0.038698507, -0.030932350, -0.018580575, -0.013342387, -0.018351294, -0.028392623, -0.035985350, -0.031570222, -0.009914931, 0.015185453, 0.017184312, -0.010382311, -0.038874877, -0.035365115, -0.000032334, 0.037167028, 0.048622257, 0.025694163, -0.023083887, -0.070700835, -0.084337172, -0.054948059, -0.002407450, 0.050882732, 0.094428473, 0.114887388, 0.091186206, 0.020097356, -0.069613221, -0.141810261, -0.178039589, -0.173650917, -0.132436198, -0.073719701, -0.020117933, 0.029486117, 0.089246136, 0.148065516, 0.170587959, 0.141248817, 0.083775728, 0.031470279, -0.003395122, -0.025517793, -0.033228099, -0.019027378, 0.005987760, 0.019656431, 0.020106175, 0.019400695, 0.019124382, 0.014850350, 0.007319353, 0.000264555, -0.005837845, -0.012951434, -0.018712852, -0.022945731, -0.032166940, -0.046132501, -0.055712329, -0.059648318, -0.067952404, -0.084052041, -0.099816575, -0.106051253, -0.089895765, -0.038213490, 0.034524418, 0.081970875, 0.073555089, 0.034453870, 0.014603432, 0.023762912, 0.029809462, 0.024074499, 0.043504589, 0.109202396, 0.177107768, 0.177116586, 0.089131496, -0.037061206, -0.129637795, -0.152251362, -0.117341870, -0.058060989, -0.004488615, 0.024897558, 0.037637348, 0.067326290, 0.130610769, 0.186687596, 0.166334503, 0.053213755, -0.080944990, -0.142104211, -0.103937753, -0.022466593, 0.030168081, 0.032795993, 0.009177117, -0.014735710, -0.028095734, -0.033533807, -0.035826617, -0.034436233, -0.033025274, -0.037593256, -0.043434041, -0.043595713, -0.038927788, -0.026032205, 0.005411618, 0.053410701, 0.090374904, 0.081582862, 0.027672446, -0.026890539, -0.041973109, -0.018892162, 0.015955602, 0.040773794, 0.045856188, 0.026214454, -0.018668760, -0.074187081, -0.112218322, -0.110048972, -0.067485023, -0.007757338, 0.040000705, 0.058363757, 0.047999083, 0.026452554, 0.013142501, 0.007880797, -0.005091213, -0.026699471, -0.037193484, -0.029345021, -0.022543020, -0.033410348, -0.054565924, -0.066635508, -0.058666526, -0.040094769, -0.028051641, -0.025282633, -0.025035715, -0.021111483, -0.004515071, 0.031581980, 0.082185459, 0.125551891, 0.132218675, 0.096186294, 0.044953762, 0.007904313, -0.006375774, -0.004115299, 0.004714957, 0.010496952, 0.007419296, 0.000390953, -0.001119949, 0.002795464, 0.006825517, 0.010291187, 0.013430572, 0.014970870, 0.014915019, 0.012631028, 0.006984250, -0.000840697, -0.005470408, -0.000584960, 0.009065416, 0.012281228, 0.007448691, -0.006334621, -0.036746680, -0.079269476, -0.109972545, -0.109008389, -0.085595278, -0.070841931, -0.080621645, -0.091556582, -0.061412018, 0.026317337, 0.138009489, 0.209777362, 0.197842995, 0.116701059, 0.024891679, -0.028495506, -0.035294567, -0.015558769, 0.006240557, 0.017340106, 0.021249640, 0.025779408, 0.029368537, 0.025097444, 0.016881544, 0.017798668, 0.027525471, 0.029303868, 0.014300664, -0.005505682, -0.011496381, 0.004106480, 0.034471507, 0.060665385, 0.058854654, 0.016766904, -0.051464752, -0.108361700, -0.121316073, -0.093199762, -0.056520691, -0.033507352, -0.016231915, 0.005150003, 0.019656431, 0.012116616, -0.015476463, -0.041702676, -0.046670429, -0.034212832, -0.020279605, -0.007827886, 0.009797351, 0.031044051, 0.047155447, 0.052026197, 0.046397056, 0.038522137, 0.032005268, 0.015088450, -0.020885142, -0.059533678, -0.074657401, -0.059601286, -0.025638312, 0.010908482, 0.029659547, 0.021202608, 0.002366297, -0.003415698, 0.003874260, 0.006269952, 0.000899487, 0.003345150, 0.015929146, 0.021572985, 0.010817357, -0.007289958, -0.016176064, -0.005849603, 0.015505858, 0.028533719, 0.023069190, 0.004071206, -0.018498269, -0.035697279, -0.039697937, -0.031823019, -0.022575354, -0.015749837, -0.008121836, 0.000120519, 0.006020094, 0.004274032, -0.011325891, -0.037022993, -0.057287900, -0.060741812, -0.049868604, -0.035517969, -0.026437856, -0.019218446, -0.001907735, 0.032069937, 0.074983686, 0.103582074, 0.098314491, 0.064813018, 0.025206206, 0.002595578, 0.010200062, 0.038927788, 0.065480285, 0.076012511, 0.073193531, 0.062961134, 0.045803277, 0.022889880, 0.000864213, -0.013074893, -0.018233714, -0.019491819, -0.021279035, -0.029165711, -0.052840438, -0.095228017, -0.138944249, -0.157495429, -0.142127727, -0.105780819, -0.060979911, -0.003756680, 0.076159485, 0.163894719, 0.207381670, 0.166875371, 0.073396356, 0.002081165, -0.011114247, 0.005776116, 0.013971440, 0.008874348, 0.007607424, 0.014209539, 0.018257230, 0.019682887, 0.026182120, 0.034424475, 0.035091742, 0.024230292, 0.003092353, -0.022560657, -0.044407015, -0.058108021, -0.064689559, -0.065594925, -0.059933450, -0.048707502, -0.040018342, -0.037898964, -0.032022905, -0.015785111, -0.001446234, -0.006431624, -0.035000617, -0.074084199, -0.100330988, -0.097905901, -0.073369901, -0.041717373, -0.003462730, 0.052952139, 0.127527234, 0.185103206, 0.175047179, 0.098243943, 0.020026808, -0.008398149, -0.000185188, 0.005781995, -0.003612645, -0.018013251, -0.034930069, -0.055876941, -0.066232797, -0.051946830, -0.024150926, -0.005135305, 0.002516211, 0.010496952, 0.017463565, 0.015658712, 0.011190674, 0.011067215, 0.009906112, 0.004858992, 0.000661387, -0.002657307, -0.012980829, -0.034021764, -0.053372487, -0.053590010, -0.033713117, -0.009456369, 0.007075375, 0.020167904, 0.037978330, 0.055682934, 0.061805911, 0.053995661, 0.039715574, 0.028460232, 0.025514853, 0.029283291, 0.036817228, 0.045991405, 0.051361870, 0.047708072, 0.036035321, 0.021960999, 0.012269470, 0.011167158, 0.010931998, -0.005667355, -0.041317601, -0.076012511, -0.091218540, -0.084895677, -0.063034621, -0.037099420, -0.023662969, -0.029568423, -0.042690347, -0.043210639, -0.021126181, 0.013280658, 0.029083405, -0.000464441, -0.057590669, -0.092003386, -0.080939111, -0.040012463, 0.015579346, 0.077076609, 0.119908052, 0.117403599, 0.079413511, 0.045515206, 0.033951216, 0.028798274, 0.016425922, -0.000579081, -0.016990306, -0.031088144, -0.044883214, -0.058819380, -0.066106398, -0.059339671, -0.043310582, -0.031846535, -0.028498445, -0.021478921, -0.001313956, 0.022213796, 0.033378014, 0.033084064, 0.026675955, 0.014130173, 0.002995350, -0.001290440, -0.006402229, -0.014086080, -0.014556400, -0.007093012, -0.000761330, 0.005138245, 0.021232003, 0.052590581, 0.088190856, 0.103017690, 0.082541138, 0.044348225, 0.018436539, 0.011361165, 0.008618612, 0.004723775, 0.007272321, 0.017187252, 0.024171502, 0.016810996, -0.008318783, -0.040773794, -0.063640158, -0.070118815, -0.064654285, -0.051829250, -0.032499103, -0.008251174, 0.014409425, 0.026664197, 0.024812313, 0.017625237, 0.019159656, 0.029286231, 0.034982980, 0.026740624, 0.004897206, -0.019744616, -0.035044710, -0.041658583, -0.046755675, -0.046711582, -0.031579040, -0.005082394, 0.016590534, 0.025132718, 0.024853466, 0.021743476, 0.018136710, 0.014656343, 0.012695697, 0.014829774, 0.017942703, 0.007866100, -0.022175582, -0.057376085, -0.081309488, -0.091436063, -0.092194454, -0.085236659, -0.067787792, -0.042305273, -0.019835741, -0.008630370, -0.007304656, -0.008539245, -0.003303997, 0.013900892, 0.038613262, 0.057561274, 0.061923491, 0.058290270, 0.058698860, 0.065903573, 0.073937224, 0.075298212, 0.065800690, 0.045573996, 0.018507087, -0.006990129, -0.020946871, -0.022548899, -0.024682975, -0.036382182, -0.046308871, -0.034371564, 0.007757338, 0.066012334, 0.105792577, 0.098138121, 0.051644062, 0.001002369, -0.036288118, -0.067393899, -0.095501390, -0.108214725, -0.093211520, -0.058772348, -0.029553725, -0.016408285, -0.005849603, 0.015291275, 0.039468656, 0.048692805, 0.037672622, 0.020094417, 0.012146011, 0.014036109, 0.014094899, 0.009767956, 0.009859080, 0.014718073, 0.014621069, 0.007698548, -0.000291010, -0.006128856, -0.008424605, -0.008130655, -0.007989559, -0.007807310, -0.007354627, -0.008671523, -0.010120696, -0.007939587, -0.004894266, -0.003933050, -0.001687273, 0.001360988, 0.002013557, 0.003421577, 0.008900804, 0.016399466, 0.021096786, 0.017193131, 0.001960646, -0.018950952, -0.033363316, -0.033574960, -0.023066250, -0.010688019, -0.001981222, 0.007128286, 0.022983944, 0.036779014, 0.032766598, 0.014027290, -0.000123459, 0.000502654, 0.008515729, 0.013312992, 0.012307683, 0.004300487, -0.013427632, -0.033037032, -0.039271710, -0.029533149, -0.014165447, 0.002554425, 0.023895189, 0.042872596, 0.044656872, 0.029865312, 0.013850920, 0.002181108, -0.010576318, -0.021502437, -0.024612427, -0.023557147, -0.023851097, -0.028633662, -0.037657925, -0.045230075, -0.045538722, -0.033131096, -0.003677314, 0.033666085, 0.055009789, 0.050277195, 0.037710836, 0.036373363, 0.045623968, 0.050571145, 0.035635549, 0.002910104, -0.024203837, -0.023604179, 0.001299259, 0.022592991, 0.017028519, -0.005032423, -0.013492301, -0.003042382, 0.002363357, -0.012972010, -0.041579217, -0.069139961, -0.087505952, -0.092949905, -0.083708119, -0.065027602, -0.049733387, -0.045306502, -0.038807269, -0.008456939, 0.037822537, 0.061506082, 0.047587553, 0.023304350, 0.016134911, 0.030676614, 0.059807051, 0.085683463, 0.083558205, 0.053057961, 0.025735316, 0.020232573, 0.016887423, -0.008412847, -0.043974908, -0.053266665, -0.025303209, 0.010820297, 0.026664197, 0.020332516, 0.003818409, -0.007904313, -0.004600316, 0.004747291, 0.000464441, -0.018604091, -0.033419167, -0.030797133, -0.014447639, 0.003495065, 0.013665732, 0.017613479, 0.021514195, 0.024912256, 0.025485458, 0.023686485, 0.016217217, 0.000502654, -0.015417673, -0.021655291, -0.018101436, -0.010943756, -0.003868381, 0.007372264, 0.024965167, 0.035485635, 0.027028695, 0.011067215, 0.006358137, 0.013019042, 0.017034398, 0.010902603, -0.000958277, -0.010467557, -0.013815646, -0.013180715, -0.011381741, -0.010446980, -0.012539904, -0.017490020, -0.024550698, -0.032484406, -0.037096480, -0.037290487, -0.037296366, -0.036878957, -0.030923532, -0.020170844, -0.010717414, -0.003627342, 0.005152942, 0.015984997, 0.026367308, 0.035412147, 0.041970170, 0.043489891, 0.035438603, 0.016587594, -0.004888387, -0.018310141, -0.018883343, -0.010638048, -0.004091783, -0.004329882, -0.001587330, 0.017104946, 0.045432900, 0.063255084, 0.064448521, 0.058043352, 0.048830961, 0.032310976, 0.006181767, -0.016496470, -0.019039136, -0.009382882, -0.016223096, -0.048695744, -0.078963768, -0.081665168, -0.068108197, -0.060900545, -0.058422547, -0.044706844, -0.018833372, 0.005435134, 0.019591762, 0.024724128, 0.025194448, 0.026390824, 0.033031153, 0.044357043, 0.052179051, 0.048516435, 0.031141055, 0.000220462, -0.034518539, -0.048287154, -0.029018736, 0.001193437, 0.014527005, 0.008198263, -0.002986531, -0.007730883, -0.007795552, -0.009456369, -0.012057826, -0.011555171, -0.007436933, -0.003471549, -0.006234678, -0.015226606, -0.017387138, -0.006108279, 0.008739131, 0.018510027, 0.022072700, 0.018942133, 0.009750319, -0.004247576, -0.018254290, -0.021531832, -0.012060765, -0.002345720, 0.001252227, 0.005632081, 0.009800290, 0.004256395, -0.004041811, 0.002336902, 0.020041506, 0.027825300, 0.018671699, 0.007483965, 0.008571580, 0.019065592, 0.024024527, 0.013186594, -0.006505112, -0.016517046, -0.009717984, -0.001025885, -0.004397491, -0.014268329, -0.020006232, -0.018054404, -0.008459879, 0.003115869, 0.006948976, 0.003060019, 0.001678454, 0.005767297, 0.010211820, 0.013589305, 0.013880315, 0.006901944, -0.003353969, -0.007974861, -0.005805511, -0.002783706, -0.003800773, -0.008539245, -0.009379942, -0.000146975, 0.011108368, 0.010317642, -0.001105252, -0.006966613, -0.002807222, 0.001178739, 0.003589129, 0.009327031, 0.015417673, 0.015808627, 0.007516300, -0.006704998, -0.016475893, -0.013698066, -0.003700830, 0.001984162, -0.000681964, -0.006140614, -0.005499803, 0.005417497, 0.021246700, 0.033160491, 0.038804329, 0.041241174, 0.040856100, 0.030967624, 0.007119467, -0.020188481, -0.036355726, -0.040250563, -0.040159438, -0.041782042, -0.043783841, -0.040917829, -0.031629012, -0.018974468, -0.006399290, 0.002331023, 0.005699689, 0.005996578, 0.005055939, 0.002263414, -0.002078226, -0.004779626, -0.007763217, -0.016731630, -0.025341423, -0.020702893, -0.006593297, -0.001987101, -0.011666872, -0.017143159, -0.007901374, 0.004597377, 0.012448779, 0.022863425, 0.041608612, 0.059645379, 0.062170409, 0.045112495, 0.016337737, -0.009315273, -0.018736368, -0.011793271, 0.002333962, 0.016364192, 0.025091565, 0.021464223, 0.005617383, -0.008959594, -0.013207170, -0.014815076, -0.021605319, -0.027913485, -0.025373757, -0.015952662, -0.008198263, -0.004935419, -0.002181108, 0.001766639, 0.006102400, 0.009794411, 0.010276489, 0.008383452, 0.007730883, 0.008336420, 0.008221779, 0.005249946, -0.001457992, -0.007786733, -0.006322863, 0.005723205, 0.019985655, 0.024365509, 0.017081430, 0.004326943, -0.008230598, -0.015817445, -0.016472954, -0.011493442, -0.002554425, 0.004335761, -0.000217523, -0.014118415, -0.022025668, -0.015937965, -0.004432765, 0.002139955, 0.003492125, 0.003565613, 0.003706709, 0.004976572, 0.008204142, 0.009074234, 0.002974773, -0.003606766, -0.001134647, 0.005358707, 0.004659106, -0.002186987, -0.006802001, -0.008071865, -0.009600404, -0.010811478, -0.011975520, -0.014409425, -0.014271269, -0.009465188, -0.003068837, 0.001734305, 0.002157592, -0.001316896, -0.003924231, -0.003374545, 0.000511473, 0.007104770, 0.011810908, 0.012190103, 0.011919669, 0.012301804, 0.009182996, 0.004035932, 0.005423376, 0.014538763, 0.021934543, 0.019047955, 0.009021323, 0.002228140, 0.001346291, 0.001775458, -0.000252797, -0.004335761, -0.005820208, -0.005667355, -0.009444611, -0.014115475, -0.011760936, -0.002245777, 0.005834906, 0.007769096, 0.008577459, 0.010361735, 0.009532796, 0.006502172, 0.003065898, -0.000899487, -0.003789015, -0.003539157, -0.002154653, -0.004567982, -0.010261792, -0.012816217, -0.009385821, -0.004767868, -0.007295837, -0.017222526, -0.022875183, -0.019177293, -0.014815076, -0.012504630, -0.007137104, -0.002486816, -0.003618524, -0.005476287, -0.004253455, -0.003215812, -0.004979512, -0.008386391, -0.010717414, -0.009047779, -0.003442154, 0.000676085, -0.001493266, -0.007498663, -0.010476375, -0.009253544, -0.008718555, -0.009597465, -0.009700347, -0.007986619, -0.002134076, 0.006754969, 0.012498751, 0.012848551, 0.011952004, 0.012063705, 0.010441101, 0.009682710, 0.021728778, 0.047740407, 0.067264561, 0.064860050, 0.049639323, 0.038375162, 0.036576189, 0.038160579, 0.036141143, 0.032146364, 0.030509062, 0.027731236, 0.018571756, 0.005920151, -0.002483877, -0.003927171, -0.004947177, -0.011778573, -0.021523013, -0.028504324, -0.029900586, -0.025782348, -0.021552408, -0.022369589, -0.022848727, -0.015911509, -0.007960164, -0.006649147, -0.007548634, -0.008765587, -0.012839733, -0.014606372, -0.011802089, -0.009318213, -0.008174747, -0.009321152, -0.014450578, -0.017554689, -0.011855000, -0.004341640, -0.007407538, -0.017354803, -0.022481290, -0.021017419, -0.015685168, -0.009421095, -0.006951916, -0.008442242, -0.008301146, -0.004497434, -0.002810161, -0.007639758, -0.014621069, -0.015699865, -0.007798491, 0.002639670, 0.007636819, 0.008180626, 0.008033651, 0.006552144, 0.003368666, -0.000564384, -0.005388102, -0.009920810, -0.011155400, -0.007866100, -0.003054140, -0.000376256, 0.000981793, 0.002251656, 0.002063528, 0.001796034, 0.004426886, 0.008512790, 0.010561621, 0.008183566, 0.001075857, -0.004732594, -0.004356338, -0.002113500, 0.001122889, 0.008324662, 0.013845041, 0.012548722, 0.008621551, 0.007545695, 0.009571009, 0.011117186, 0.011046638, 0.010729172, 0.007736762, 0.000814241, -0.004282850, -0.002633791, 0.003254026, 0.006702058, 0.004870750, 0.000276313, -0.002263414, 0.001255166, 0.005252885, 0.001469750, -0.005229369, -0.007498663, -0.005517440, -0.000279252, 0.003062958, -0.002516211, -0.012801519, -0.020047385, -0.024609488, -0.027437286, -0.027716538, -0.025714739, -0.018039707, -0.002795464, 0.013662792, 0.025802924, 0.032625502, 0.035773706, 0.042884354, 0.056464841, 0.063616642, 0.052334844, 0.027804723, 0.004656167, -0.009750319, -0.016420043, -0.016026150, -0.009218270, -0.001810732, -0.001463871, -0.006408108, -0.007028343, 0.000038213, 0.007478086, 0.005308736, -0.004203484, -0.007401659, -0.003080595, -0.002104681, -0.004567982, -0.004753170, -0.003101172, -0.000191067, 0.002234019, -0.001011188, -0.012025491, -0.028442595, -0.044045456, -0.050603479, -0.044933185, -0.032493224, -0.020600011, -0.011140702, -0.004147633, 0.000396832, 0.005987760, 0.017933885, 0.037528587, 0.057755281, 0.069889534, 0.072573296, 0.067861279, 0.054939241, 0.032184577, 0.004570921, -0.013457027, -0.015802748, -0.015488221, -0.020623527, -0.024647701, -0.023380777, -0.017160796, -0.007589787, 0.000067608, 0.001684333, -0.003500944, -0.015229545, -0.028433776, -0.033363316, -0.027172731, -0.017686967, -0.010890845, -0.004817839, 0.003559734, 0.012772124, 0.017263679, 0.012866188, 0.002013557, -0.009382882, -0.020670559, -0.035174048, -0.050174312, -0.057822889, -0.054745234, -0.045817974, -0.040576847, -0.044742118, -0.052675826, -0.051923314, -0.039254073, -0.022481290, -0.003965384, 0.023698243, 0.068393329, 0.120396009, 0.138814911, 0.086953327, -0.010379372, -0.075645073, -0.060297948, -0.003271663, 0.016396527, -0.017516476, -0.042296454, -0.008683281, 0.061967583, 0.127004004, 0.180223637, 0.227179198, 0.234942415, 0.163656619, 0.039315802, -0.061717726, -0.098467345, -0.089678242, -0.060756510, -0.018101436, 0.019794588, 0.019991534, -0.019632915, -0.060430225, -0.069163477, -0.053810473, -0.043942574, -0.046191291, -0.040274079, -0.016919758, 0.008183566, 0.016690477, 0.001943009, -0.029389113, -0.060968153, -0.081447645, -0.091577159, -0.095765945, -0.097050506, -0.099898881, -0.109075998, -0.123611821, -0.134923015, -0.128482572, -0.092791172, -0.032616683, 0.033777786, 0.085692281, 0.110290011, 0.119161420, 0.138861943, 0.167301598, 0.171002428, 0.139679124, 0.105192919, 0.093282068, 0.090366085, 0.074454576, 0.051652880, 0.040391659, 0.038801390, 0.029309747, 0.003468609, -0.028568993, -0.045091918, -0.034145223, -0.008997807, 0.006558023, 0.001916553, -0.012219498, -0.017019701, -0.011669812, -0.013671611, -0.026502525, -0.032466769, -0.025902867, -0.026358490, -0.048131360, -0.075262938, -0.082444135, -0.071947183, -0.068960652, -0.085803982, -0.107085957, -0.102929505, -0.050356561, 0.043827933, 0.131086968, 0.151995626, 0.094972281, 0.010640987, -0.038707326, -0.036417456, -0.012969071, 0.000540868, 0.002448603, 0.006275831, 0.013330629, 0.012107797, 0.000831878, -0.010879087, -0.020720530, -0.029056950, -0.027178610, -0.011099549, 0.008365815, 0.016290705, 0.006434564, -0.012354715, -0.022737027, -0.017828063, -0.007548634, -0.003856623, -0.006172948, 0.001554995, 0.036934808, 0.095031071, 0.144652757, 0.156795828, 0.131313309, 0.092044539, 0.067605543, 0.073854918, 0.098620199, 0.102964779, 0.047452336, -0.063246265, -0.166775428, -0.205594455, -0.188210257, -0.162845318, -0.156396056, -0.157366091, -0.138776698, -0.083508234, 0.001328654, 0.080886200, 0.115975002, 0.101680218, 0.070694956, 0.057067438, 0.061567811, 0.053407761, 0.010740930, -0.047919716, -0.075401095, -0.035900104, 0.054624714, 0.132242191, 0.144593967, 0.100736639, 0.054448344, 0.043907300, 0.058093323, 0.057922832, 0.019036197, -0.042743258, -0.088170279, -0.093834694, -0.067881856, -0.036293997, -0.022484230, -0.033469138, -0.057981622, -0.080651040, -0.089252015, -0.065539075, -0.001846006, 0.071041817, 0.105930734, 0.084539998, 0.025723558, -0.040494541, -0.093052788, -0.115134306, -0.096297995, -0.059833507, -0.059069237, -0.115390042, -0.181090789, -0.185235483, -0.109052482, -0.002439784, 0.082632263, 0.143776786, 0.197687202, 0.242085398, 0.258381982, 0.228046350, 0.153262550, 0.067972980, 0.013283597, -0.005661476, -0.027713599, -0.089163830, -0.173647977, -0.225086274, -0.211070742, -0.148994397, -0.071027120, 0.005150003, 0.072141190, 0.123902832, 0.159021029, 0.179412335, 0.178821496, 0.151425363, 0.109419919, 0.072176464, 0.043019571, 0.010740930, -0.026487828, -0.056773488, -0.077799726, -0.105104734, -0.149729272, -0.195456122, -0.210033099, -0.183756915, -0.138494506, -0.095275049, -0.061735363, -0.045465235, -0.047699254, -0.050753394, -0.027369677, 0.043954332, 0.164212185, 0.295472583, 0.369862490, 0.343398179, 0.239833742, 0.122259652, 0.031473218, -0.027143336, -0.059066297, -0.069342787, -0.064621951, -0.051920375, -0.035030012, -0.018968589, -0.014964991, -0.031928841, -0.064745410, -0.094419655, -0.105613268, -0.103420401, -0.101192261, -0.097626648, -0.080674556, -0.046223625, -0.002313386, 0.034547934, 0.044556929, 0.020676438, -0.019103805, -0.044057214, -0.036655555, -0.001940069, 0.048866235, 0.107882561, 0.152545312, 0.143156552, 0.069307513, -0.021617077, -0.075509856, -0.091488974, -0.106365780, -0.137547987, -0.167542637, -0.176002516, -0.159961669, -0.127206829, -0.082388284, -0.011925548, 0.106774370, 0.254049160, 0.345373522, 0.310040741, 0.181587565, 0.063066956, 0.012892644, 0.004565042, -0.008254114, -0.028489627, -0.030012287, -0.007827886, 0.011061336, 0.005155882, -0.013245384, -0.020564737, -0.015790990, -0.009656255, 0.001028825, 0.019647613, 0.033122277, 0.034142284, 0.031978812, 0.027934061, 0.009115387, -0.023989253, -0.048880933, -0.053240210, -0.049862725, -0.045853248, -0.025888170, 0.015135482, 0.040244684, 0.005587988, -0.070706714, -0.119440672, -0.104305191, -0.053501825, -0.013601063, -0.006919581, -0.023971616, -0.034004127, -0.011887335, 0.039074763, 0.088158521, 0.094061036, 0.041729131, -0.030706009, -0.067440931, -0.053978024, -0.021258458, 0.000928882, 0.015870356, 0.039550962, 0.069131143, 0.089369595, 0.092076874, 0.075709742, 0.040856100, -0.003198175, -0.039239375, -0.055018607, -0.046232444, -0.018745187, 0.000796604, -0.020200239, -0.078781519, -0.131283914, -0.142750901, -0.115551715, -0.064239816, 0.001455052, 0.060309706, 0.081532890, 0.063572550, 0.043669201, 0.045365292, 0.044274737, 0.008142413, -0.057655338, -0.126898182, -0.186320158, -0.229533737, -0.242226494, -0.212270058, -0.147024933, -0.073846100, -0.021423070, -0.004256395, -0.005729084, 0.026611287, 0.123729401, 0.249201926, 0.343997837, 0.380021400, 0.361405551, 0.304626184, 0.233443271, 0.183945043, 0.172613274, 0.161801795, 0.107150626, 0.027169791, -0.019965079, -0.015203090, 0.007742641, 0.016810996, 0.004617953, -0.029468480, -0.074824953, -0.104087668, -0.106283474, -0.100160497, -0.097021111, -0.087988030, -0.075371700, -0.079290052, -0.104102365, -0.125131543, -0.124326120, -0.112400571, -0.098549651, -0.070930116, -0.021664109, 0.032525559, 0.064389731, 0.066417985, 0.058105081, 0.056229681, 0.053736985, 0.036690829, 0.004735533, -0.028792395, -0.048328307, -0.046646913, -0.026173301, 0.003930110, 0.035041770, 0.061238587, 0.068069984, 0.036593826, -0.033804241, -0.113041382, -0.159503107, -0.157042746, -0.122147951, -0.078284743, -0.034033522, 0.016331858, 0.076088937, 0.132350953, 0.156972198, 0.125651834, 0.047034927, -0.031946478, -0.071362223, -0.077896730, -0.075577465, -0.071309312, -0.071503319, -0.089443082, -0.116986190, -0.119096751, -0.073875495, -0.005255825, 0.039489233, 0.040033040, 0.013465846, -0.020385427, -0.054721718, -0.076635684, -0.066973550, -0.029812401, 0.005026544, 0.020694075, 0.030512002, 0.053572373, 0.094163918, 0.140381665, 0.170884848, 0.166810702, 0.125446069, 0.066811878, 0.020103235, 0.001531479, 0.008656825, 0.025332604, 0.031370336, 0.019247841, -0.001701970, -0.018680518, -0.025573643, -0.022983944, -0.015961481, -0.009750319, -0.004712017, 0.001152284, 0.009382882, 0.023175012, 0.041320541, 0.052593520, 0.048101965, 0.033895366, 0.020576495, 0.008792042, -0.002898346, -0.010282368, -0.017584084, -0.038142942, -0.069172296, -0.090410178, -0.096327390, -0.101924196, -0.106727338, -0.082341252, -0.012016673, 0.080574613, 0.157433700, 0.196014627, 0.185417732, 0.130122812, 0.064398549, 0.028683633, 0.025976355, 0.026690653, 0.015923267, 0.005961304, 0.003086474, -0.005179398, -0.026670076, -0.051767521, -0.066861849, -0.066844212, -0.056426627, -0.044847940, -0.038392799, -0.038060636, -0.039165888, -0.035785464, -0.027569563, -0.018442418, -0.013847981, -0.016270128, -0.019580004, -0.015144300, -0.002863072, 0.009703287, 0.016693416, 0.016687537, 0.009503401, -0.002604396, -0.015723381, -0.027854695, -0.037848992, -0.044118944, -0.043695656, -0.038242885, -0.039841973, -0.054930422, -0.066467957, -0.051861585, -0.018268988, 0.005958365, 0.012895583, 0.017093188, 0.025479579, 0.032722505, 0.035200503, 0.030176899, 0.015529374, 0.001219892, 0.002836617, 0.020811655, 0.042352305, 0.057528939, 0.059912873, 0.046158956, 0.025176811, 0.011090731, 0.001728426, -0.016325979, -0.038745539, -0.046502878, -0.035441542, -0.020047385, -0.013551091, -0.013856799, -0.010926119, -0.003668495, 0.000993551, 0.000908305, 0.001522661, 0.006428685, 0.010446980, 0.009124206, 0.006672663, 0.004953056, -0.000664327, -0.007666214, -0.008115957, -0.002936560, 0.003606766, 0.011026062, 0.014503489, 0.009171238, 0.000514412, -0.004823718, -0.003815470, 0.011852061, 0.045012552, 0.075307031, 0.073422812, 0.033895366, -0.016902121, -0.046652792, -0.044036638, -0.022296102, -0.000737814, 0.013903831, 0.026073358, 0.043810296, 0.071315191, 0.096095169, 0.095022252, 0.057958106, -0.005538017, -0.070909540, -0.107106533, -0.101298083, -0.074910198, -0.060871150, -0.067679030, -0.077006061, -0.072279346, -0.055306678, -0.037055327, -0.027063969, -0.029353839, -0.038877817, -0.047049625, -0.048792748, -0.038378102, -0.006090642, 0.054574743, 0.134044104, 0.202719625, 0.228231538, 0.201664344, 0.143018395, 0.075683287, 0.009121266, -0.045588694, -0.071121184, -0.066732511, -0.050383017, -0.034271621, -0.017869216, 0.003030624, 0.031011717, 0.056432506, 0.055265525, 0.016352434, -0.034741941, -0.060509592, -0.056103282, -0.048304791, -0.052966837, -0.057693551, -0.049839209, -0.034286319, -0.022601810, -0.022178522, -0.029982892, -0.035744311, -0.033774846, -0.026725927, -0.019997413, -0.016361253, -0.013606942, -0.005558593, 0.009050718, 0.023951040, 0.038686749, 0.059607165, 0.080113112, 0.074442818, 0.027184489, -0.035056468, -0.064095781, -0.043877905, -0.004759049, 0.017598782, 0.017293074, 0.005114729, -0.011687449, -0.025520732, -0.026182120, -0.009162419, 0.018404205, 0.040053616, 0.041555701, 0.024703552, 0.007895495, 0.007895495, 0.017795728, 0.008486334, -0.035256354, -0.084936830, -0.094769455, -0.057705309, -0.011960822, 0.017010882, 0.047787439, 0.089346079, 0.104284614, 0.069184054, 0.020973327, 0.004212302, 0.015226606, 0.023710001, 0.018968589, 0.016505288, 0.027375556, 0.039230557, 0.035929499, 0.018533543, -0.000149914, -0.010485194, -0.012866188, -0.013924408, -0.017469444, -0.018480632, -0.010993727, -0.003888957, -0.012472295, -0.034865400, -0.058328483, -0.076594531, -0.086738743, -0.085648189, -0.075697984, -0.066077003, -0.062899404, -0.063616642, -0.064768926, -0.063049319, -0.047311240, -0.005573291, 0.049730448, 0.079040195, 0.058842896, 0.012210680, -0.021055633, -0.026958147, -0.015211908, 0.006461019, 0.032649018, 0.051082618, 0.055459532, 0.053587071, 0.054192608, 0.056558905, 0.058828198, 0.068866588, 0.090274961, 0.104675567, 0.090595366, 0.051564695, 0.007680911, -0.027122759, -0.047608129, -0.056126798, -0.064192784, -0.079607518, -0.089260834, -0.066573778, -0.007563332, 0.052035015, 0.072723211, 0.057769978, 0.046285355, 0.057999259, 0.070033569, 0.058925202, 0.037528587, 0.033078185, 0.044639235, 0.044718602, 0.022772301, -0.002195806, -0.017916248, -0.033166370, -0.054313127, -0.079101924, -0.106406933, -0.132686056, -0.150302474, -0.152133782, -0.131477921, -0.090704128, -0.052117321, -0.042746198, -0.064571980, -0.088449532, -0.081403552, -0.038713205, 0.016661082, 0.066553202, 0.114155452, 0.159726509, 0.181946184, 0.161525483, 0.105839609, 0.043595713, 0.007916071, 0.012078402, 0.036041200, 0.049119032, 0.037669683, 0.009812048, -0.014694557, -0.021793447, -0.014074322, -0.001907735, 0.013648095, 0.035806040, 0.052126140, 0.044695086, 0.020044445, 0.003997719, 0.007860221, 0.019233143, 0.020053264, 0.000743693, -0.032040542, -0.057931651, -0.061297377, -0.042819685, -0.015373581, 0.003762559, 0.005061818, -0.005446892, -0.016664021, -0.025250298, -0.032178698, -0.035429784, -0.034071736, -0.032455011, -0.036088232, -0.046041376, -0.055959247, -0.052652310, -0.023974556, 0.024180321, 0.063801831, 0.069874836, 0.044398196, 0.014186023, 0.007939587, 0.026237970, 0.039824336, 0.028430837, 0.005294038, -0.005805511, -0.002580880, -0.003289300, -0.019100866, -0.038901333, -0.045747426, -0.038272280, -0.028424958, -0.022616507, -0.014474094, -0.003492125, -0.006663845, -0.035659065, -0.075994874, -0.101057044, -0.101515606, -0.094160979, -0.101315720, -0.126013392, -0.144496963, -0.120801660, -0.033348619, 0.106556847, 0.252397162, 0.342137134, 0.338783165, 0.257999847, 0.151260751, 0.065327431, 0.018706973, 0.004856053, 0.010649806, 0.026196817, 0.039545083, 0.039330500, 0.021376038, -0.010699777, -0.046561668, -0.077432289, -0.094769455, -0.082673416, -0.038451589, 0.010426404, 0.029832978, 0.008180626, -0.037940117, -0.074119473, -0.066841273, -0.013548152, 0.037584437, 0.027037514, -0.040803189, -0.098461466, -0.102679647, -0.076909058, -0.062135135, -0.065127545, -0.066970611, -0.053340153, -0.018918617, 0.031329183, 0.075168874, 0.090986320, 0.080386485, 0.058075686, 0.033357437, 0.010056027, -0.008154171, -0.015438250, -0.008262932, 0.008098320, 0.023909887, 0.033607295, 0.039309923, 0.043645685, 0.038160579, 0.012728032, -0.020864566, -0.034509721, -0.019412453, -0.001825429, -0.014068443, -0.057155623, -0.100301593, -0.107715010, -0.062708337, 0.017422412, 0.088043881, 0.112253596, 0.089625331, 0.050950340, 0.030335632, 0.037731412, 0.058704739, 0.073793189, 0.067899493, 0.038516258, 0.003938929, -0.014021411, -0.013912650, -0.005958365, 0.002577941, -0.002195806, -0.035344539, -0.085219022, -0.115869181, -0.109167122, -0.085036773, -0.066653145, -0.052531791, -0.032663715, -0.006743211, 0.013942045, 0.018157287, 0.010388190, 0.002148774, -0.001772518, 0.000799544, 0.009253544, 0.018683457, 0.023401353, 0.020062082, 0.012019612, 0.005590928, 0.001005309, -0.007810249, -0.023495417, -0.039359895, -0.047434699, -0.047296543, -0.043063664, -0.037325761, -0.033448562, -0.037199363, -0.044462865, -0.036931868, -0.002780766, 0.048257759, 0.088655297, 0.089604755, 0.051367749, 0.007716185, -0.014691617, -0.022516564, -0.030597247, -0.032890057, -0.018227835, 0.005126487, 0.025082747, 0.049774540, 0.094787092, 0.151880986, 0.185188451, 0.164026996, 0.099263949, 0.042140661, 0.033654327, 0.059968724, 0.071144700, 0.034148163, -0.036925989, -0.095136892, -0.107888440, -0.085803982, -0.055824030, -0.027898787, -0.008383452, -0.012354715, -0.034924190, -0.040985438, -0.005696750, 0.048804506, 0.073372840, 0.053002111, 0.025288512, 0.024906377, 0.039071824, 0.033886547, 0.001928311, -0.031993510, -0.044454047, -0.040268200, -0.037843113, -0.039280528, -0.033272192, -0.019597641, -0.011240645, -0.013545212, -0.018642304, -0.020309000, -0.020356032, -0.023518933, -0.029600757, -0.028771818, -0.013795070, 0.005358707, 0.011026062, -0.002022375, -0.024318477, -0.043563379, -0.051649941, -0.047308301, -0.038645596, -0.040709125, -0.062593697, -0.090615943, -0.092573649, -0.051079678, 0.012004915, 0.053672316, 0.047417062, -0.001660817, -0.066068185, -0.111512843, -0.119658195, -0.101865406, -0.075977237, -0.033348619, 0.049495288, 0.163662498, 0.252820450, 0.260339689, 0.187396015, 0.089028613, 0.012581057, -0.036017684, -0.064842413, -0.077458744, -0.088502443, -0.112944379, -0.134999441, -0.118729313, -0.055441895, 0.015767474, 0.049383587, 0.044262979, 0.031446763, 0.023607118, 0.008451060, -0.014012593, -0.025173871, -0.017581145, -0.000952398, 0.017860397, 0.041511608, 0.076062482, 0.128758885, 0.187451866, 0.197813600, 0.119217270, 0.009415216, -0.023586542, 0.035000617, 0.081976754, 0.036781954, -0.047187781, -0.061811790, -0.001693152, 0.038507440, 0.007804370, -0.047190721, -0.061435534, -0.025967536, 0.009297636, -0.007134165, -0.057387843, -0.060550745, 0.025062170, 0.137897788, 0.179615161, 0.125040418, 0.043401706, 0.011605143, 0.036402758, 0.075839080, 0.096968200, 0.086118509, 0.039298165, -0.022892820, -0.053190239, -0.024627125, 0.029095163, 0.047234813, 0.008007196, -0.060330282, -0.116180767, -0.132559657, -0.111245348, -0.084466510, -0.089616513, -0.135231662, -0.192904637, -0.223669436, -0.216417691, -0.196290940, -0.187898670, -0.188280804, -0.182848610, -0.162319147, -0.117415357, -0.036920110, 0.070897782, 0.167283962, 0.220289012, 0.247899728, 0.295501978, 0.363181008, 0.384642292, 0.296689536, 0.119487704, -0.046020800, -0.113114870, -0.087705838, -0.032390342, 0.012616331, 0.040853160, 0.050109643, 0.040315232, 0.022989823, 0.007863160, -0.010773265, -0.045218317, -0.100292774, -0.170699660, -0.248984403, -0.328483160, -0.395544895, -0.435724910, -0.455319612, -0.472580351, -0.477362916, -0.428631898, -0.313718055, -0.186067362, -0.099942974, -0.015523495, 0.175297036, 0.505596807, 0.846322980, 1.000000000, 0.873733811, 0.536226388, 0.145078984, -0.139679124, -0.222543607, -0.119458309, 0.061315014, 0.202969482, 0.245692164, 0.193998130, 0.109649200, 0.083143736, 0.159629506, 0.291313192, 0.374650934, 0.342075404, 0.231973521, 0.145472877, 0.118597036, 0.086477128, -0.006143553, -0.120930998, -0.182963250, -0.171804911, -0.129152778, -0.108549827, -0.134655520, -0.193207405, -0.249825100, -0.292053946, -0.344688619, -0.415827440, -0.455842843, -0.416706350, -0.327739466, -0.258502502, -0.217831590, -0.150126105, -0.033410348, 0.083896247, 0.165211615, 0.245633374, 0.351643474, 0.402823095, 0.298767762, 0.086530039, -0.073114164, -0.091106839, -0.019759314, 0.026958147, -0.025579522, -0.155984526, -0.272147657, -0.296363252, -0.210729760, -0.038924849, 0.167113471, 0.318180215, 0.323788779, 0.182492931, 0.012169527, -0.042419913, 0.067211650, 0.248775699, 0.334685503, 0.215891521, -0.067840703, -0.368386862, -0.550485899, -0.567367443, -0.445434076, -0.247197187, -0.053904537, 0.064680741, 0.093805299, 0.089019795, 0.131292733, 0.250565854, 0.399768955, 0.489614749, 0.442080107, 0.259307924, 0.051608788, -0.051423599, -0.025018078, 0.042469885, 0.062073405, 0.028777697, -0.016564078, -0.056600058, -0.095774764, -0.127280317, -0.145666884, -0.181822725, -0.264854759, -0.338515670, -0.290504830, -0.105660300, 0.065603744, 0.069516217, -0.036517399, -0.034415657, 0.160849398, 0.373266430, 0.418722846, 0.349271298, 0.304537999, 0.273058902, 0.165820091, 0.007354627, -0.095736550, -0.110069549, -0.088190856, -0.070709654, -0.057373146, -0.048789808, -0.056103282, -0.070012993, -0.067414475, -0.061018125, -0.095495511, -0.177725063, -0.252356009, -0.267641405, -0.234751348, -0.194139226, -0.155620029, -0.112015497, -0.086635861, -0.111274743, -0.150916830, -0.112080166, 0.036379242, 0.198125187, 0.259781184, 0.225788815, 0.171422776, 0.120610593, 0.062038131, 0.027889969, 0.060274432, 0.122621210, 0.113740983, -0.017340106, -0.195773588, -0.294931715, -0.275278224, -0.190617706, -0.076700353, 0.087297248, 0.302206976, 0.496748914, 0.578369989, 0.501837187, 0.293085710, 0.049230733, -0.108364639, -0.129649553, -0.076706232, -0.046573426, -0.069319271, -0.106080648, -0.124558340, -0.133638453, -0.149159009, -0.163738925, -0.157871685, -0.120845753, -0.054771689, 0.027181549, 0.102127022, 0.149379472, 0.158797627, 0.121172037, 0.032910633, -0.068140532, -0.110195947, -0.075856717, -0.035573820, -0.047690435, -0.081397673, -0.075113024, -0.027839997, 0.001214013, -0.027019877, -0.083040853, -0.114866811, -0.112697461, -0.095530785, -0.060297948, 0.009168298, 0.097420883, 0.164270975, 0.185044416, 0.155426022, 0.078646302, -0.024347872, -0.106456904, -0.124423123, -0.084925072, -0.035276930, 0.006863731, 0.067085251, 0.135375697, 0.154156158, 0.117535877, 0.089760548, 0.096565489, 0.093038090, 0.060483136, 0.045359413, 0.071085910, 0.081432947, 0.025323786, -0.052134958, -0.071130002, -0.034468568, -0.018204319, -0.061670694, -0.122071524, -0.142362887, -0.126330858, -0.127618359, -0.174409308, -0.229668954, -0.241471043, -0.205353416, -0.152268999, -0.110583961, -0.100824823, -0.128738308, -0.172166470, -0.197575501, -0.181475864, -0.110954338, 0.009673892, 0.153600593, 0.286712876, 0.370697308, 0.366273362, 0.275010729, 0.162016379, 0.101112894, 0.109190638, 0.151204901, 0.192657719, 0.226617753, 0.256468368, 0.280689842, 0.293976378, 0.283279540, 0.232787762, 0.145328842, 0.048904449, -0.025661828, -0.068531485, -0.090771736, -0.109837328, -0.137374557, -0.172175288, -0.203398649, -0.225277342, -0.245768591, -0.265748367, -0.253764029, -0.181105487, -0.085504154, -0.050641693, -0.102573826, -0.166061130, -0.158506617, -0.088546535, -0.020047385, 0.021223184, 0.059589528, 0.109146546, 0.144855582, 0.139067708, 0.094734181, 0.032393281, -0.026449614, -0.063052258, -0.075121842, -0.080368848, -0.099622568, -0.138914854, -0.173127686, -0.152801049, -0.055095034, 0.081438826, 0.195168051, 0.247185429, 0.213201879, 0.086753441, -0.070321640, -0.141595678, -0.080965567, 0.025059231, 0.073122983, 0.074078320, 0.111518722, 0.191764111, 0.208436951, 0.090418996, -0.075368760, -0.134925954, -0.051791037, 0.065298036, 0.113367667, 0.102279876, 0.088966884, 0.075915507, 0.028954067, -0.050653451, -0.133814823, -0.211508727, -0.279837387, -0.307133577, -0.267071142, -0.190894019, -0.139276413, -0.112609276, -0.043716233, 0.090918711, 0.220377197, 0.284975632, 0.317842172, 0.365153412, 0.394956995, 0.342125376, 0.196849445, 0.014291845, -0.133268076, -0.203639688, -0.202625561, -0.159094517, -0.096415575, -0.032111090, 0.014920898, 0.023022158, -0.012819156, -0.055991581, -0.048830961, 0.034400959, 0.157880503, 0.240756745, 0.220744634, 0.121809908, 0.035309265, 0.010720354, -0.006090642, -0.088352528, -0.206978959, -0.255433664, -0.195232720, -0.101089378, -0.041858469, -0.001607906, 0.045832672, 0.064386791, 0.016931516, -0.052252538, -0.062299747, -0.001663757, 0.057023346, 0.043924937, -0.035844254, -0.120833995, -0.159250310, -0.148459408, -0.126848210, -0.137991852, -0.190964567, -0.243616877, -0.234101718, -0.142600986, -0.024095075, 0.036214630, 0.016728690, -0.015164877, 0.006652087, 0.072420442, 0.141957236, 0.215027308, 0.307224701, 0.384357161, 0.382364180, 0.303747274, 0.232731912, 0.214071971, 0.184741647, 0.082905636, -0.045318260, -0.110780907, -0.093211520, -0.032205154, 0.030329753, 0.039039489, -0.063560792, -0.240615649, -0.351678748, -0.307330523, -0.174374034, -0.080001411, -0.068369813, -0.090166199, -0.083755151, -0.039289347, 0.001737244, -0.001152284, -0.051673457, -0.113467610, -0.114211303, 0.003127627, 0.188789338, 0.288059166, 0.192998701, -0.031699560, -0.218672287, -0.256885777, -0.155143830, -0.017451807, 0.016655203, -0.120963333, -0.346928517, -0.485931557, -0.425013375, -0.201114658, 0.053639982, 0.243993133, 0.405739078, 0.633476781, 0.869571480, 0.886091465, 0.593534865, 0.225756480, 0.070074722, 0.126962851, 0.183892132, 0.135848957, 0.063801831, 0.044177734, 0.045462295, 0.017231344, -0.030209234, -0.064810079, -0.086970964, -0.114705139, -0.156451907, -0.209803818, -0.254299018, -0.256312575, -0.209071883, -0.150805129, -0.124899322, -0.132718390, -0.137371617, -0.108687984, -0.056029795, -0.017995614, -0.014468215, -0.017587024, 0.004882508, 0.026387885, -0.019959200, -0.148671052, -0.287850462, -0.358239710, -0.349053775, -0.292674180, -0.199547905, -0.071579746, 0.040838463, 0.074122413, 0.044886153, 0.039171767, 0.104828421, 0.210938465, 0.291213249, 0.271133530, 0.118961534, -0.069992416, -0.135701982, -0.047655161, 0.068278688, 0.115404740, 0.120804600, 0.132909458, 0.143100701, 0.129696585, 0.080507005, -0.028348531, -0.182484112, -0.290075663, -0.284046750, -0.209501049, -0.132445017, -0.036296936, 0.110725057, 0.251806322, 0.287709366, 0.205235836, 0.106750854, 0.100413294, 0.186764023, 0.262059296, 0.216667549, 0.043810296, -0.136040024, -0.184018531, -0.083746333, 0.049171943, 0.099158127, 0.062035192, 0.008295267, -0.025053352, -0.050247800, -0.056147375, 0.011431712, 0.166093464, 0.311825017, 0.324082729, 0.195920563, 0.037634409, -0.062111619, -0.109405222, -0.140981322, -0.159191520, -0.157971628, -0.154323709, -0.158821143, -0.156810526, -0.139640911, -0.123967501, -0.123056256, -0.114808021, -0.069381000, -0.009324092, -0.002286930, -0.080653980, -0.193031035, -0.250739284, -0.222129138, -0.155417203, -0.093767086, -0.021311369, 0.073152378, 0.135081747, 0.105313439, 0.024824071, 0.009615102, 0.097717773, 0.188204378, 0.176261192, 0.079263597, -0.018965649, -0.078578693, -0.111994921, -0.128503148, -0.101959470, 0.012484053, 0.213810355, 0.408343475, 0.485296625, 0.445431136, 0.368610264, 0.265469115, 0.090604185, -0.113023745, -0.229175118, -0.229945267, -0.204327531, -0.217032046, -0.240944873, -0.250489427, -0.275395804, -0.308644479, -0.256650617, -0.073028919, 0.107911956, 0.083975614, -0.149282468, -0.326269717, -0.171184677, 0.265283926, 0.596865318, 0.514230116, 0.142454012, -0.140778497, -0.158571286, -0.045920857, 0.018742247, 0.013712764, 0.008060107, 0.041934896, 0.112291810, 0.183812766, 0.199850673, 0.153077362, 0.126469015, 0.193774729, 0.295128662, 0.284543525, 0.117494724, -0.078481690, -0.163962327, -0.150746339, -0.143606295, -0.181625778, -0.212966719, -0.184133171, -0.084675215, 0.057819950, 0.164938241, 0.148000847, 0.025779408, -0.078237711, -0.104690265, -0.117882737, -0.163929993, -0.194397902, -0.169194636, -0.126760025, -0.111886159, -0.109014268, -0.082161943, -0.036482125, -0.008721494, -0.013021982, -0.018033828, 0.013474664, 0.064948235, 0.078966707, 0.047117233, 0.028880580, 0.056382535, 0.092179756, 0.096794770, 0.073314050, 0.039642087, 0.004074146, -0.023592421, -0.030844165, -0.021261398, -0.010114817, -0.003724346, -0.000435046, -0.000667266, -0.005126487, -0.010044269, -0.009791472, -0.005552714, -0.004159391, -0.005396921, -0.003145264, 0.000479138, -0.005052999, -0.022219675, -0.037525647, -0.037081783, -0.024709431, -0.013868557, -0.005587988, 0.010379372, 0.031579040, 0.034765457, 0.000823060, -0.057102712, -0.104531532, -0.130096357, -0.163168663, -0.226958735, -0.287394839, -0.278035474, -0.173065956, -0.028036944, 0.060112759, 0.058055110, 0.040879616, 0.091474276, 0.191381976, 0.257717655, 0.242840850, 0.153033269, 0.020694075, -0.084078496, -0.057743523, 0.133062312, 0.361620134, 0.444466981, 0.339024204, 0.161266807, 0.023360200, -0.046026679, -0.040444570, 0.029186288, 0.083396533, 0.065703687, 0.065865359, 0.178136593, 0.280995550, 0.179953203, -0.075559828, -0.257603015, -0.293047496, -0.301307489, -0.345064875, -0.354100895, -0.277044863, -0.143526929, 0.009277060, 0.153374251, 0.239727920, 0.234436821, 0.167357449, 0.101215777, 0.067176376, 0.048919146, 0.019585883, -0.000558505, 0.054374857, 0.181813906, 0.250330694, 0.156916348, -0.009982539, -0.082993821, -0.040888434, -0.001643180, -0.031743652, -0.081721018, -0.093446680, -0.073487481, -0.056314926, -0.054886330, -0.063640158, -0.076650382, -0.088690571, -0.097156328, -0.101253990, -0.096459667, -0.083040853, -0.071932486, -0.071297554, -0.077006061, -0.081929722, -0.085521791, -0.089398990, -0.090045680, -0.079810344, -0.056068008, -0.029171590, -0.014377091, -0.016519986, -0.027998730, -0.036761377, -0.034689030, -0.022116792, -0.002037073, 0.022772301, 0.037316943, 0.024377267, -0.002824859, -0.010355856, 0.011696267, 0.034930069, 0.028280922, 0.001725486, -0.009794411, 0.001402141, 0.017237223, 0.020097356, -0.014091959, -0.098896512, -0.187260798, -0.189947501, -0.074657401, 0.088137945, 0.201773106, 0.234513248, 0.216438268, 0.185573526, 0.164215124, 0.155620029, 0.141395792, 0.102394516, 0.046405874, 0.000023516, -0.021437768, -0.026173301, -0.033580839, -0.060500773, -0.110775028, -0.162463183, -0.187390136, -0.192593050, -0.210650394, -0.249748673, -0.277203596, -0.247432347, -0.132300981, 0.060691841, 0.271054163, 0.401720783, 0.394768867, 0.293573667, 0.214066092, 0.248887400, 0.377446398, 0.460284426, 0.365247476, 0.116995009, -0.124764105, -0.239201750, -0.243919646, -0.221076797, -0.208057755, -0.190535400, -0.158824083, -0.128823554, -0.115345950, -0.103385127, -0.054157334, 0.052958018, 0.183848040, 0.267126992, 0.256868140, 0.172398690, 0.071147639, -0.013342387, -0.086377185, -0.142847904, -0.151707555, -0.107720889, -0.049489409, -0.010464617, 0.006657966, 0.005926030, -0.006108279, -0.004485676, 0.025979294, 0.047916777, 0.014391788, -0.051949770, -0.088746421, -0.080457033, -0.055971005, -0.031329183, -0.005249946, 0.009829685, -0.003427456, -0.030708948, -0.030323874, 0.014870927, 0.065603744, 0.067390959, 0.020638224, -0.019923926, -0.022766422, -0.014947354, -0.024973985, -0.039797880, -0.037937177, -0.025985173, -0.024891679, -0.038369283, -0.049465893, -0.044915548, -0.028151584, -0.010270610, -0.001222832, -0.005931909, -0.021102665, -0.034953585, -0.035473877, -0.022595931, -0.008104199, -0.003915413, -0.011781513, -0.023145617, -0.029171590, -0.025676526, -0.007210592, 0.025588341, 0.052373058, 0.051782218, 0.030482607, 0.017860397, 0.034589087, 0.067108767, 0.076138909, 0.040459267, -0.016073182, -0.051320717, -0.049621686, -0.030814770, -0.020990964, -0.029103982, -0.044915548, -0.046367661, -0.018745187, 0.028777697, 0.067064675, 0.069980658, 0.041614491, 0.014280087, 0.011120126, 0.021246700, 0.019259599, -0.000808362, -0.019838680, -0.019956260, -0.007354627, -0.002366297, -0.016449438, -0.045870885, -0.077147157, -0.093852331, -0.087711717, -0.069098808, -0.060339101, -0.075280575, -0.109646261, -0.143379954, -0.149649906, -0.123006285, -0.093784723, -0.078863825, -0.030091654, 0.121025062, 0.364600787, 0.588337831, 0.667895377, 0.577305890, 0.395021664, 0.203281069, 0.018257230, -0.166187528, -0.314858581, -0.375162407, -0.348410025, -0.301363340, -0.296422042, -0.319517687, -0.289816987, -0.159450196, 0.002630852, 0.084378325, 0.090471907, 0.126551321, 0.218407732, 0.276071888, 0.248367108, 0.187357802, 0.147924420, 0.138332834, 0.165302739, 0.216367720, 0.229448491, 0.170826058, 0.092629500, 0.059213272, 0.061194495, 0.038963062, -0.033066427, -0.122474235, -0.184127292, -0.196552555, -0.161681276, -0.098238064, -0.041479274, -0.025023957, -0.048639894, -0.076635684, -0.078828551, -0.060962274, -0.046605760, -0.046144259, -0.052258417, -0.055209674, -0.052990353, -0.049706932, -0.052181990, -0.066035850, -0.090821708, -0.114305367, -0.114487616, -0.082937971, -0.040177075, -0.012545783, -0.005061818, -0.005970123, -0.007580969, -0.010764446, -0.012478174, -0.008010135, -0.001945948, -0.000382135, -0.003148204, -0.008018954, -0.012469356, -0.014809197, -0.013992016, -0.007971922, 0.001872461, 0.009453430, 0.012639847, 0.014941475, 0.017160796, 0.016740448, 0.013327689, 0.010141272, 0.010635108, 0.015617559, 0.022113853, 0.022619447, 0.013815646, 0.006243496, 0.009797351, 0.016105516, 0.014421183, 0.011369983, 0.018751066, 0.032481466, 0.031096962, -0.003577371, -0.064730712, -0.121951004, -0.135319847, -0.075289394, 0.048184271, 0.176602174, 0.235559710, 0.191523072, 0.084166681, -0.008789103, -0.041770284, -0.025141537, 0.012310623, 0.055535959, 0.096080472, 0.118811619, 0.108987813, 0.069137022, 0.020206118, -0.016905060, -0.036729043, -0.046570486, -0.053337213, -0.059022205, -0.068575577, -0.092582468, -0.133021159, -0.168195206, -0.168189327, -0.126818815, -0.057114470, 0.038895454, 0.154323709, 0.233058196, 0.212516976, 0.121977460, 0.058234419, 0.058763529, 0.072723211, 0.054451284, 0.018771642, -0.003121748, -0.011549292, -0.023421930, -0.038281098, -0.044374680, -0.040265260, -0.030241568, -0.019053834, -0.014862108, -0.020176723, -0.028757121, -0.034547934, -0.035265172, -0.031890627, -0.024856405, -0.009717984, 0.016740448, 0.044327648, 0.052217264, 0.033407409, 0.006731453, -0.008274690, -0.014879745, -0.023518933, -0.029647789, -0.024574214, -0.014421183, -0.012851491, -0.021458344, -0.029233320, -0.030100472, -0.027837058, -0.026235031, -0.025600099, -0.023492478, -0.015987936, -0.003318695, 0.005823148, 0.002075286, -0.011108368, -0.021146757, -0.020870445, -0.012886765, -0.002530909, 0.011214190, 0.029774188, 0.044953762, 0.048172513, 0.041064804, 0.032407979, 0.027690083, 0.021405433, 0.009767956, 0.000426227, -0.010349977, -0.050674027, -0.140366967, -0.247558746, -0.304796675, -0.290628289, -0.256791713, -0.250160203, -0.254072676, -0.230068725, -0.180194242, -0.131883572, -0.080436457, 0.016187822, 0.180435281, 0.361775928, 0.469050013, 0.470760801, 0.417200186, 0.357804664, 0.299185171, 0.241635655, 0.196361488, 0.160781789, 0.115930910, 0.059542496, 0.016655203, 0.004256395, 0.008603914, 0.005993639, -0.015485282, -0.042008383, -0.035888346, 0.014253632, 0.060098062, 0.046732159, -0.016984427, -0.070248153, -0.081870932, -0.083978553, -0.105069460, -0.117133165, -0.082347131, -0.012389989, 0.046241262, 0.059989300, 0.024268506, -0.042111266, -0.100551450, -0.116624632, -0.094472566, -0.066056427, -0.050606419, -0.044759755, -0.039703816, -0.032925331, -0.026240910, -0.021975696, -0.023886371, -0.031335062, -0.035923620, -0.033057608, -0.028633662, -0.029988771, -0.035544425, -0.036949505, -0.031270393, -0.023125040, -0.015720442, -0.011960822, -0.016370071, -0.025567764, -0.031340941, -0.031340941, -0.024127410, -0.009429914, 0.004324003, 0.011193613, 0.014080201, 0.011743299, 0.002098802, -0.006922521, -0.005705568, 0.006616813, 0.021032117, 0.027854695, 0.028704210, 0.031614314, 0.036508580, 0.036964203, 0.033760149, 0.031861232, 0.030050501, 0.025873472, 0.019715221, 0.010926119, 0.000520291, -0.006572720, -0.007795552, -0.004788444, 0.000255736, 0.004359277, 0.004670864, 0.002992410, 0.005608565, 0.015000265, 0.022510685, 0.016802178, 0.001951827, -0.004961875, 0.000667266, 0.007522179, 0.011023122, 0.014109596, 0.015770413, 0.016070242, 0.016960911, 0.018004433, 0.020699954, 0.025603038, 0.024659459, 0.008659765, -0.017448867, -0.036114688, -0.034633180, -0.016055545, 0.002980652, 0.007522179, -0.002913044, -0.015899751, -0.014332998, 0.003007108, 0.016328918, 0.013524636, 0.003068837, -0.003033563, -0.003797833, -0.006225859, -0.013024921, -0.019250780, -0.018307201, -0.008498092, 0.003395122, 0.006825517, -0.000799544, -0.010358795, -0.013365903, -0.009900233, -0.002719037, 0.005852543, 0.011440531, 0.009127145, 0.000529110, -0.006687361, -0.010208881, -0.013997895, -0.016887423, -0.014629888, -0.010834994, -0.012381171, -0.020688196, -0.029968195, -0.027096304, -0.001913614, 0.039265831, 0.073684427, 0.077144218, 0.048542890, 0.015608741, 0.003768438, 0.007419296, 0.006352258, -0.002460361, -0.008627430, -0.007680911, -0.002816040, -0.000158733, -0.001405081, 0.000411530, 0.007622121, 0.010596895, 0.004024174, -0.004764928, -0.011061336, -0.017689906, -0.021090907, -0.013994956, -0.000796604, 0.005923091, 0.001190497, -0.007824947, -0.013292416, -0.013659853, -0.009168298, -0.003542097, -0.003662616, -0.010770325, -0.018977407, -0.021152636, -0.015182514, -0.004662046, 0.006869610, 0.016943274, 0.019871015, 0.012645726, 0.004203484, 0.004156452, 0.008827316, 0.009191814, 0.003398061, -0.000646690, 0.003045321, 0.006784364, 0.002545606, -0.006475717, -0.015050236, -0.017681088, -0.010638048, -0.001546177, 0.000437985, -0.001843066, -0.001043522, 0.003406880, 0.005323433, 0.001031764, -0.005820208, -0.009030142, -0.004700259, 0.004232879, 0.009253544, 0.005870180, -0.000555565, -0.000014697, 0.008212961, 0.012398808, 0.004761989, -0.007736762, -0.013207170, -0.010943756, -0.009529856, -0.010305884, -0.008891985, -0.005899575, -0.002660247, -0.000467380, -0.003336332, -0.009150661, -0.011466986, -0.009938447, -0.004773747, 0.004153512, 0.011569869, 0.014009653, 0.012054886, 0.006896065, 0.002445663, 0.002522090, 0.008842014, 0.019694645, 0.023906947, 0.013606942, 0.001360988, 0.001569693, 0.008474576, 0.009591586, 0.003230510, -0.004776686, -0.008994868, -0.008013075, -0.005344010, -0.005261704, -0.008771466, -0.013803888, -0.016799238, -0.015523495, -0.008456939, 0.004153512, 0.015300093, 0.016963850, 0.009700347, 0.001049401, -0.002139955, 0.002304567, 0.010617471, 0.016073182, 0.019027378, 0.024056862, 0.027960517, 0.025835259, 0.018004433, 0.006531567, -0.003753741, -0.009503401, -0.012431142, -0.012287107, -0.008292327, -0.004532708, -0.003880139, -0.003521520, -0.001690212, -0.000385074, -0.001169921, -0.004365156, -0.008756768, -0.011775634, -0.012007854, -0.011243585, -0.010529286, -0.007736762, -0.005264643, -0.005946607, -0.004979512, -0.000223402, 0.004394551, 0.006769667, 0.005385163, -0.001531479, -0.009329971, -0.009288818, -0.003015926, -0.000191067, -0.000529110, 0.000658448, 0.000793665, 0.000126398, 0.003530339, 0.008792042, 0.008080683, 0.000373316, -0.006710877, -0.006972492, -0.001128768, 0.004376914, 0.004135875, 0.001572632, 0.002416268, 0.003727285, -0.000241039, -0.006302286, -0.006302286, -0.000320405, 0.003124688, 0.000655508, -0.000802483, 0.004285790, 0.012213619, 0.016008513, 0.011640417, 0.001984162, -0.004165270, -0.003271663, -0.000726056, 0.000123459, 0.002301628, 0.005003028, 0.002783706, -0.002439784, -0.005964244, -0.010664503, -0.018889222, -0.024274385, -0.020746986, -0.014715133, -0.015708684, -0.020879263, -0.021123241, -0.012995526, -0.002395692, 0.002713158, 0.002137016, 0.000108761, -0.000002939, 0.003018866, 0.006281710, 0.006146493, 0.003007108, -0.001549116, -0.005170579, -0.003074716, 0.003577371, 0.007913132, 0.007822007, 0.004691441, 0.000793665, -0.000029395, 0.002013557, 0.002166411, 0.001369807, 0.004238758, 0.004332822, -0.003412759, -0.006364016, 0.003562673, 0.015746897, 0.016913879, 0.006901944, -0.001693152, -0.001187558, 0.003762559, 0.005232309, 0.001131707, -0.000470320, 0.005779055, 0.011987278, 0.011184795, 0.008233537, 0.009723863, 0.014535824, 0.017733999, 0.014438820, 0.005217611, -0.000720177, 0.000393893, 0.002072347, 0.002895407, 0.005831966, 0.007901374, 0.006716756, 0.004129996, 0.000908305, -0.001987101, -0.005364586, -0.013136622, -0.020558858, -0.015799808, -0.000152854, 0.011278859, 0.007892555, -0.005405739, -0.012519327, -0.007648577, -0.003568552, -0.008703857, -0.016884484, -0.023351382, -0.029171590, -0.032557893, -0.031205724, -0.026502525, -0.020123812, -0.013201291, -0.007163560, -0.002751371, 0.000170491, 0.001105252, 0.001296319, 0.007945466, 0.023865794, 0.037199363, 0.039133553, 0.036805470, 0.036329271, 0.034010006, 0.026972845, 0.018133771, 0.011813847, 0.009241786, 0.007648577, 0.004262274, 0.000778967, 0.000661387, 0.003450972, 0.004659106, 0.000693722, -0.005388102, -0.006049489, -0.001313956, 0.001343351, 0.000755451, 0.001625543, 0.005858422, 0.011237706, 0.013039619, 0.009876717, 0.005881938, 0.003871320, 0.001893038, -0.003448033, -0.012307683, -0.019388937, -0.018468874, -0.012513448, -0.010879087, -0.013639276, -0.014250692, -0.013157199, -0.014970870, -0.019203748, -0.020117933, -0.016323039, -0.013433511, -0.014309482, -0.015835082, -0.012681000, -0.006219980, -0.003597947, -0.001299259, 0.006863731, 0.015461766, 0.019400695, 0.019156716, 0.013883255, 0.005091213, 0.000029395, 0.001202255, 0.002398631, -0.000355679, -0.006149432, -0.012822096, -0.015153119, -0.010279429, -0.003474488, -0.001114070, -0.004109420, -0.007248805, -0.004203484, 0.001631422, 0.001161102, -0.002913044, -0.001216953, 0.004077085, 0.005535077, 0.005108850, 0.005861361, 0.003450972, -0.002813101, -0.007633879, -0.008271751, -0.005114729, -0.000270434, 0.004203484, 0.007719125, 0.008556882, 0.003821349, -0.005576230, -0.012122495, -0.010394069, -0.005282280, -0.002789585, -0.002939499, -0.006546265, -0.012654544, -0.012977889, -0.005173519, 0.002389813, 0.007084193, 0.013257142, 0.019403634, 0.019385997, 0.012778003, 0.006707937, 0.006234678, 0.008415786, 0.009038960, 0.008221779, 0.005773176, 0.001211074, -0.000173430, 0.005473348, 0.012924978, 0.014779802, 0.007360506, -0.005358707, -0.012542843, -0.008624491, 0.001560874, 0.009835564, 0.011220069, 0.007216471, 0.004326943, 0.006219980, 0.008662704, 0.005673234, -0.001940069, -0.006951916, -0.003248147, 0.005176458, 0.006120037, -0.002310446, -0.006957795, -0.001205195, 0.005637960, 0.005079455, 0.002066468, 0.003198175, 0.003771378, -0.000728996, -0.007248805, -0.011884395, -0.010817357, -0.006078884, -0.004911903, -0.007501602, -0.010203002, -0.011952004, -0.011499321, -0.008753829, -0.006728514, -0.007513360, -0.008515729, -0.006472777, -0.000934761, 0.006372834, 0.010967272, 0.009920810, 0.005873119, 0.003027684, 0.001657878, 0.000332163, 0.000517352, 0.000952398, -0.001002369, -0.001992980, 0.000082306, 0.003086474, 0.005690871, 0.006413987, 0.004806081, 0.001599088, -0.004788444, -0.013701006, -0.019071471, -0.017422412, -0.010426404, -0.001499145, 0.005249946, 0.007142983, 0.003862502, -0.000047032, 0.001149344, 0.004944238, 0.005540956, 0.002489756, -0.000252797, 0.000928882, 0.004294608, 0.005576230, 0.004873690, 0.005732023, 0.009130085, 0.010585137, 0.006117098, -0.001031764, -0.005776116, -0.007545695, -0.007807310, -0.006878428, -0.002045891, 0.006816699, 0.010682140, 0.004309306, -0.003042382, -0.002448603, 0.001969464, 0.004044751, 0.004753170, 0.004914843, 0.002672005, -0.000655508, -0.003574431, -0.009377003, -0.016140790, -0.014738649, -0.006522749, -0.002727855, -0.006334621, -0.011569869, -0.013248323, -0.009180056, -0.001798974, 0.001296319, -0.005226430, -0.014374151, -0.013539333, -0.002986531, 0.007610363, 0.014679859, 0.015949723, 0.007736762, -0.002360418, 0.000452683, 0.016640505, 0.027760631, 0.023904008, 0.020341335, 0.028610146, 0.036925989, 0.032966484, 0.021190850, 0.012198922, 0.010714475, 0.016367132, 0.024230292, 0.026226212, 0.020335456, 0.012827975, 0.011763876, 0.022845788, 0.044686267, 0.067455628, 0.080271845, 0.074701494, 0.044880274, -0.005144124, -0.059072176, -0.100921827, -0.127580145, -0.146763317, -0.161434358, -0.162386756, -0.145758009, -0.125449009, -0.116609934, -0.118626431, -0.119331911, -0.112094864, -0.104657930, -0.104610898, -0.100742518, -0.069598523, -0.000111701, 0.095233896, 0.187181432, 0.238710853, 0.225827028, 0.165258647, 0.104934243, 0.079492878, 0.087212003, 0.110425228, 0.142442254, 0.175620381, 0.182290105, 0.147651046, 0.099534383, 0.072787880, 0.067252803, 0.054618835, 0.013674550, -0.044974338, -0.090636519, -0.105154706, -0.096318571, -0.086768138, -0.091318483, -0.102650253, -0.107717949, -0.106224684, -0.101724310, -0.093349677, -0.083140796, -0.076374069, -0.070386309, -0.050653451, -0.006052429, 0.050841579, 0.090107409, 0.097268029, 0.088537717, 0.082949729, 0.074513366, 0.047852108, 0.003215812, -0.043977848, -0.073369901, -0.070315761, -0.035226959, 0.016458256, 0.062473177, 0.085321905, 0.074860227, 0.026749443, -0.044968459, -0.106812583, -0.134041165, -0.130593132, -0.114108420, -0.092579528, -0.064915901, -0.033989430, -0.008924320, 0.004391612, 0.012422324, 0.034618482, 0.087047391, 0.157066262, 0.203595595, 0.185485341, 0.097600193, -0.015350065, -0.102021200, -0.147715715, -0.155672940, -0.128949952, -0.084034404, -0.045341776, -0.024283203, -0.015529374, -0.007860221, 0.004350459, 0.018430660, 0.028154524, 0.034935948, 0.056438385, 0.105636784, 0.159811754, 0.170438044, 0.110325285, 0.009000747, -0.069375121, -0.090072135, -0.077185371, -0.074860227, -0.093722993, -0.105301681, -0.075997813, 0.006102400, 0.120075604, 0.212969658, 0.236485652, 0.199515571, 0.162898229, 0.167322175, 0.180693957, 0.142639200, 0.045088979, -0.073025979, -0.179512278, -0.254933949, -0.283211932, -0.262714804, -0.211485211, -0.155261410, -0.107550398, -0.067305714, -0.038360465, -0.031596677, -0.042625678, -0.047252450, -0.024947530, 0.020861626, 0.061544295, 0.064910022, 0.028548416, -0.007725004, 0.008271751, 0.081294791, 0.147389431, 0.140178839, 0.068431542, 0.001966525, -0.013633397, -0.002951257, -0.011716844, -0.041164747, -0.053925113, -0.027199186, 0.014071383, 0.023383716, -0.011602203, -0.063208052, -0.111486387, -0.167004709, -0.228507851, -0.239910169, -0.130540221, 0.091788803, 0.314820367, 0.416947389, 0.376188293, 0.256409578, 0.123564790, 0.024921074, 0.003042382, 0.063710706, 0.145516970, 0.168421548, 0.109852026, 0.012583996, -0.065653715, -0.104816663, -0.132844789, -0.178771524, -0.228075745, -0.233895953, -0.166978254, -0.044545171, 0.098493801, 0.232482054, 0.305966596, 0.264457927, 0.131774811, 0.002763129, -0.063628400, -0.084219592, -0.088822848, -0.076788538, -0.052899228, -0.063860621, -0.150375962, -0.275789696, -0.353607060, -0.346531685, -0.297506717, -0.255001558, -0.197578441, -0.059042781, 0.177728002, 0.436195230, 0.598861238, 0.597955872, 0.463785370, 0.288858710, 0.136830750, 0.006078884, -0.104619717, -0.147833295, -0.090862861, 0.005617383, 0.032252186, -0.045459356, -0.162219204, -0.253082065, -0.314714545, -0.358565995, -0.372552132, -0.354747585, -0.331434417, -0.313747450, -0.274343463, -0.192784117, -0.094090431, -0.015796869, 0.038657354, 0.090906953, 0.159820573, 0.253258435, 0.350114934, 0.397290958, 0.360606007, 0.264790090, 0.171096492, 0.135272815, 0.176164189, 0.243143618, 0.228563702, 0.076673898, -0.127098068, -0.237317531, -0.206241145, -0.104455105, -0.014609311, 0.027742994, 0.015241303, -0.043222397, -0.112294749, -0.140522761, -0.100589664, -0.015197211, 0.062443782, 0.096271539, 0.096036379, 0.089281410, 0.082632263, 0.070015932, 0.053798715, 0.038877817, 0.018995044, -0.011784452, -0.029045192, 0.008018954, 0.088843425, 0.141795564, 0.119866899, 0.051987983, -0.006416927, -0.033536747, -0.036282239, -0.019459485, 0.007995438, 0.019300752, -0.005000088, -0.054607077, -0.105378108, -0.139787886, -0.148770995, -0.130390307, -0.091227359, -0.037740231, 0.029086345, 0.093417285, 0.118291328, 0.081236001, -0.003650858, -0.098699566, -0.162860015, -0.174085963, -0.140760860, -0.093164488, -0.059633621, -0.038751418, -0.013315931, 0.008830256, 0.005843724, -0.013968500, -0.015852719, 0.011593385, 0.040441630, 0.045909099, 0.038245824, 0.045203619, 0.073666790, 0.100874795, 0.107215295, 0.086515341, 0.028360289, -0.060233279, -0.129673069, -0.131774811, -0.077226524, -0.019403634, 0.010482254, 0.030259205, 0.061970523, 0.081482919, 0.046079590, -0.035282809, -0.093088062, -0.066259252, 0.037067085, 0.158556588, 0.247117821, 0.278250057, 0.239425152, 0.130763623, -0.005840785, -0.088002728, -0.073472783, -0.022275525, -0.021672928, -0.071873696, -0.099881244, -0.070686138, -0.036035321, -0.057916953, -0.122959253, -0.166601998, -0.153059725, -0.098467345, -0.032837146, 0.030823589, 0.088264343, 0.124584796, 0.120398949, 0.073649153, 0.004712017, -0.056311987, -0.091571280, -0.108879051, -0.123735280, -0.138159403, -0.144702728, -0.133676667, -0.097088720, -0.040697367, 0.014197781, 0.061165100, 0.132480291, 