0.000000000, 0.010901660, 0.006090518, 0.005086000, 0.004150375, 0.002029098, -0.000239023, -0.001970487, -0.001915756, 0.000722238, 0.004170352, 0.005567105, 0.007856301, 0.014524899, 0.013576899, -0.002770768, -0.013390742, -0.002466917, 0.013906181, 0.019629449, 0.021601507, 0.024121110, 0.026949462, 0.031056996, 0.020563915, -0.003690071, -0.010546807, 0.003994263, 0.013344470, 0.009320536, 0.003252822, 0.000938769, 0.001294905, 0.001974803, 0.001317845, 0.000393992, 0.000198855, -0.000993507, -0.002160735, 0.001893220, 0.011496063, 0.015925926, 0.010011260, 0.003073558, 0.000649215, 0.000211958, 0.000201920, 0.000177869, 0.000753965, 0.003814041, 0.016866577, 0.045903130, 0.073980530, 0.064302981, 0.025167335, 0.022833253, 0.055311603, 0.069031844, 0.069258575, 0.069845683, 0.057534607, 0.034243114, 0.020258206, 0.014731279, 0.005399426, -0.000948934, 0.015930711, 0.084448247, 0.213924839, 0.313854715, 0.238442374, 0.054495088, -0.034883772, -0.011788370, 0.020861772, 0.024648622, 0.023064135, 0.020136924, 0.010621924, 0.004517960, 0.003060667, 0.002555594, 0.000255517, -0.003371223, -0.003110875, 0.004666517, 0.015510165, 0.021502519, 0.024472480, 0.027735832, 0.024718753, 0.015268589, 0.005738491, -0.000813953, -0.002497964, -0.000106276, 0.002982909, 0.004424886, 0.004994451, 0.005645313, 0.006584752, 0.009818514, 0.014799863, 0.022769710, 0.028935178, 0.022383361, 0.014219876, 0.008092214, -0.003807921, -0.001675112, 0.023954394, 0.037095752, 0.015094290, -0.007625237, -0.002362596, 0.013812189, 0.022159532, 0.025065441, 0.028197488, 0.028315258, 0.023538729, 0.025187388, 0.033393140, 0.033256058, 0.024898397, 0.017599845, 0.012021236, 0.006161566, 0.000518002, -0.004653382, -0.005277623, 0.003887229, 0.017375267, 0.022404932, 0.019699287, 0.018957716, 0.018605732, 0.020373790, 0.027609822, 0.029699256, 0.027836488, 0.026868884, 0.025430491, 0.030002657, 0.039802723, 0.045200436, 0.051408484, 0.050605046, 0.032595727, 0.014341193, 0.009969457, 0.015390639, 0.019080253, 0.013540617, 0.003881964, 0.000390892, 0.000586833, 0.001092071, 0.009062339, 0.021929478, 0.024746451, 0.016484103, 0.008117886, 0.004305247, 0.001563399, -0.000476669, -0.000162115, 0.002111258, 0.003775249, 0.002985693, 0.001289149, 0.000798108, 0.002201837, 0.004326650, 0.005672084, 0.007669726, 0.008644871, 0.002874076, -0.003744006, -0.001611227, 0.004920334, 0.006289465, 0.002156633, -0.001083187, -0.000661236, 0.001072287, 0.001975977, 0.002465643, 0.003126584, 0.003515902, 0.003240117, 0.003132910, 0.002764633, 0.002319015, 0.001374816, -0.001550844, -0.002303945, 0.004319569, 0.013301856, 0.016313591, 0.013898209, 0.010632263, 0.010984283, 0.012853549, 0.012853946, 0.014033573, 0.011336769, 0.001934376, -0.003450918, 0.001521552, 0.008638645, 0.013314528, 0.020435798, 0.023574797, 0.016231877, 0.013282107, 0.019513782, 0.025795561, 0.035764751, 0.041029060, 0.035669020, 0.044210063, 0.058987384, 0.049613906, 0.027817523, 0.014516398, 0.007110228, 0.003718310, 0.003403189, 0.003389927, 0.003457059, 0.003664312, 0.003658805, 0.002971895, 0.002018210, 0.001527609, 0.001451403, 0.001345779, 0.001470232, 0.001555225, 0.001298042, 0.000527870, -0.000338468, -0.000368941, 0.000221116, 0.000487124, 0.000230486, -0.000026387, -0.000081475, -0.000100647, -0.000188539, -0.000017670, 0.000722101, 0.000919877, 0.000217300, 0.000725761, 0.001287327, -0.000247955, -0.001184368, 0.000209064, 0.001571500, 0.001365623, 0.000185868, -0.000269295, 0.000302048, 0.001016585, 0.003530746, 0.008295443, 0.010277249, 0.008060433, 0.006424440, 0.005147532, 0.004239244, 0.001543208, -0.002569387, -0.002905482, 0.003770254, 0.013528241, 0.017579097, 0.015223861, 0.014481111, 0.014248172, 0.016363210, 0.022214231, 0.020221324, 0.011618563, 0.006188559, 0.002404982, -0.000530466, -0.000259414, 0.000676051, 0.000577976, 0.000458938, 0.000305672, 0.000244554, 0.000741966, 0.000847799, -0.000300204, -0.000790216, 0.000448280, 0.001110464, 0.000293671, -0.000491787, -0.000192133, 0.000594829, 0.000620705, 0.000166036, 0.000011250, 0.000002770, 0.000000612, -0.000001165, 0.000007199, 0.000020738, 0.000017720, 0.000049377, 0.000073192, 0.000082483, 0.000110120, 0.000111803, 0.000167361, 0.000718577, 0.001851258, 0.002838088, 0.002799057, 0.001428350, 0.000232439, -0.000108114, -0.000077005, -0.000010201, -0.000006984, -0.000065181, -0.000024047, 0.000271097, 0.000494939, 0.000368887, 0.000234363, 0.000239330, 0.000246407, 0.000427420, 0.001125567, 0.001678608, 0.000386171, -0.001944787, -0.000042637, 0.006810790, 0.010948048, 0.009581518, 0.007008069, 0.005210703, 0.002495162, 0.000427233, 0.000451400, 0.000648810, 0.000207647, 0.000026327, -0.000110782, -0.000531704, -0.000481585, 0.000458352, 0.001788392, 0.002485324, 0.001874661, 0.001094611, 0.000930970, 0.001108799, 0.001353012, 0.002906460, 0.007477363, 0.013503770, 0.014999913, 0.006097609, -0.005033620, -0.004731946, 0.004441598, 0.009586688, 0.006859763, 0.003078998, 0.001594629, 0.000935035, 0.000481610, 0.000834740, 0.001703861, 0.001947972, 0.001537864, 0.001293151, 0.001088841, 0.000889315, 0.000005000, -0.000575912, 0.000782164, 0.003311718, 0.004495046, 0.003859330, 0.002868056, 0.002315722, 0.001591742, 0.001336825, 0.001763062, 0.000743333, -0.001659802, -0.001381308, 0.003423629, 0.006817196, 0.003924085, -0.000179593, 0.000079315, 0.003795155, 0.005574401, 0.003378006, 0.001335671, 0.000577953, 0.000304005, 0.000339603, 0.000337010, 0.000366305, 0.000483630, 0.000700677, 0.000673842, 0.000406259, 0.000375203, 0.000641079, 0.000958445, 0.001362096, 0.002071154, 0.002736721, 0.002189518, 0.001547378, 0.001218543, 0.000848552, 0.001372155, 0.002021919, 0.003204727, 0.005222051, 0.004452893, 0.001128741, 0.000190605, 0.001661648, 0.003881923, 0.013102822, 0.028599455, 0.030667469, 0.017837294, 0.011275723, 0.010652209, 0.009886005, 0.009103294, 0.006399146, 0.007995165, 0.021757375, 0.033882873, 0.029278335, 0.019545314, 0.013178511, 0.008197426, 0.005430239, 0.004647110, 0.004316291, 0.003879817, 0.004687538, 0.006196011, 0.008113630, 0.009627869, 0.005731585, -0.000407253, 0.000336997, 0.004758450, 0.007355935, 0.010224115, 0.013304821, 0.011049869, 0.003925089, -0.000065386, 0.000158464, 0.000382728, -0.000309402, -0.000367459, 0.001310533, 0.003159827, 0.002075118, -0.000846209, -0.000286069, 0.003853265, 0.006548382, 0.007177697, 0.007587174, 0.007715267, 0.005225447, 0.001705453, 0.000085727, 0.000015760, 0.000264358, 0.000243940, 0.000173115, 0.000157218, -0.000079777, -0.000260798, -0.000014709, 0.000517963, 0.000813631, 0.000112111, -0.000673286, 0.000552146, 0.002516609, 0.003283936, 0.003904110, 0.004595922, 0.005421710, 0.006539760, 0.007877275, 0.007829949, 0.005329541, 0.004738187, 0.004327273, 0.005165659, 0.011142748, 0.017089574, 0.016359175, 0.010898317, 0.007885245, 0.006102256, 0.004734444, 0.003647665, 0.001971041, 0.000605461, 0.000139362, 0.001776197, 0.003831858, 0.003110173, 0.001100211, -0.000036632, 0.000025269, 0.001305681, 0.003545860, 0.010490920, 0.032017817, 0.061935832, 0.073530820, 0.062603944, 0.049085473, 0.038738771, 0.027311225, 0.018504737, 0.012688330, 0.006398926, 0.001379696, 0.000178120, 0.001089628, 0.001941944, 0.003029752, 0.005568133, 0.009564884, 0.011748848, 0.011510468, 0.013390376, 0.014858052, 0.017223722, 0.020126962, 0.013904763, 0.003860843, 0.001804668, 0.007203808, 0.009863423, 0.000852859, -0.004761466, 0.011799923, 0.035148028, 0.050273174, 0.070213813, 0.077939808, 0.038688046, -0.014039181, -0.025420649, 0.003254093, 0.032619842, 0.041410949, 0.035662154, 0.027907780, 0.020961721, 0.009245926, 0.002692389, 0.005043198, 0.005164222, 0.002692910, 0.001756062, 0.002566332, 0.003859238, 0.003928926, 0.002844489, 0.001745964, 0.001065147, 0.000608991, 0.000548585, 0.000523858, 0.000511480, 0.000250907, -0.000017328, 0.000017111, -0.000022879, -0.000217181, -0.000101309, 0.000804417, 0.002448801, 0.004658022, 0.008710797, 0.014841642, 0.020985413, 0.029333909, 0.038565953, 0.033426376, 0.016122451, 0.005766023, 0.002183168, -0.002639674, -0.005462138, -0.000010106, 0.010377103, 0.013640635, 0.008233806, 0.003153170, 0.001681089, 0.003705683, 0.007031766, 0.012745851, 0.022787422, 0.041341598, 0.063471839, 0.062776528, 0.034094135, 0.007594484, 0.000129489, 0.003477952, 0.006130355, 0.004913762, 0.003327642, 0.002788903, 0.001202202, 0.000163790, 0.007832732, 0.026702726, 0.045652113, 0.057595984, 0.070652877, 0.076592900, 0.042257002, -0.008039817, -0.018330275, 0.003672964, 0.016736974, 0.009586035, -0.002133126, -0.005260320, -0.000585958, 0.004998880, 0.008021323, 0.008247381, 0.006683383, 0.005394722, 0.003967678, 0.000910836, -0.001430755, 0.003683803, 0.016736633, 0.022365493, 0.012303185, -0.000976390, -0.004438907, 0.000408712, 0.004406318, 0.005531526, 0.007016137, 0.007206357, 0.006953127, 0.009438867, 0.009018904, 0.004392749, 0.001517575, 0.001909062, 0.003866986, 0.004841886, 0.005179763, 0.005664945, 0.006369453, 0.006956641, 0.006878507, 0.004642918, 0.000917225, -0.001091955, -0.000797844, 0.000263929, 0.000908353, 0.000913879, 0.000229816, -0.000862176, -0.000842469, 0.003494972, 0.017493820, 0.042519539, 0.053883327, 0.028813015, 0.005189069, 0.017460054, 0.035959819, 0.038289276, 0.038068114, 0.038123706, 0.035530004, 0.040233245, 0.049588170, 0.071801260, 0.130123589, 0.171106585, 0.139864934, 0.088081134, 0.055257472, 0.034763493, 0.019338697, 0.007928052, 0.003438769, 0.003359866, 0.003726853, 0.003100100, 0.003427845, 0.004897900, 0.008103203, 0.023568790, 0.044168614, 0.062574787, 0.088496585, 0.099845516, 0.089399676, 0.068743026, 0.049985360, 0.044944500, 0.049581309, 0.057361450, 0.045396615, 0.015276918, 0.000666253, 0.009372584, 0.016434887, 0.013061048, 0.009348485, 0.006070865, 0.004230935, 0.005056312, 0.004636386, 0.004577428, 0.007348518, 0.014386320, 0.021284544, 0.010231465, -0.016684500, -0.013526601, 0.037411546, 0.073812423, 0.048026975, 0.004603407, -0.005719690, 0.001575354, 0.004292658, 0.006154021, 0.008401791, 0.011510719, 0.016173274, 0.015906885, 0.010616315, 0.005149417, 0.002352947, 0.001917924, 0.001194933, 0.003668789, 0.015445769, 0.028329251, 0.023069425, 0.007344048, 0.000861739, 0.001897690, 0.002528453, 0.001977908, 0.001672558, 0.001657759, 0.002270875, 0.003314033, 0.004303882, 0.005834137, 0.005788344, 0.001573734, 0.000679356, 0.006812658, 0.008383979, 0.003463650, 0.002016393, 0.003129117, 0.002721021, 0.001831295, 0.001071004, 0.001409221, 0.002570061, 0.005007086, 0.014620232, 0.047535112, 0.102869282, 0.114044028, 0.053801573, 0.000929813, -0.006514777, 0.002106082, 0.007948014, 0.018919316, 0.041197126, 0.066450262, 0.068194144, 0.031747018, -0.004550793, -0.005626691, 0.006581912, 0.005641309, -0.004353045, -0.007171078, 0.003035155, 0.014684456, 0.019893921, 0.026341991, 0.029021965, 0.015048067, 0.001504925, 0.035676614, 0.113847343, 0.141861685, 0.087959013, 0.035885862, 0.018717258, 0.009683606, 0.012378686, 0.022678318, 0.036513575, 0.053647288, 0.046878405, 0.018377147, -0.011061702, -0.025026907, -0.003453285, 0.046264814, 0.075172044, 0.059064890, 0.034880309, 0.026804473, 0.019323994, 0.022504871, 0.058146566, 0.091078934, 0.084286000, 0.053377327, 0.034954029, 0.033439287, 0.034311722, 0.036926883, 0.050631605, 0.071925863, 0.073355483, 0.058202195, 0.054010240, 0.049793401, 0.040398584, 0.054191974, 0.072820915, 0.046437387, -0.007029773, -0.030999616, -0.007972216, 0.032133106, 0.060073032, 0.079541450, 0.092395117, 0.104980343, 0.117495534, 0.096579017, 0.063619030, 0.044547433, 0.028423676, 0.018799380, 0.012583274, 0.005346116, 0.001537974, 0.000556253, -0.000616879, 0.003534250, 0.014321372, 0.019547105, 0.018087525, 0.022199931, 0.030605640, 0.039997605, 0.057322076, 0.060043153, 0.021555745, -0.026575211, -0.030204702, 0.011939418, 0.045224554, 0.040871578, 0.040686085, 0.062337369, 0.065088787, 0.053699095, 0.041837741, -0.007017252, -0.048654338, 0.033659370, 0.195403542, 0.244809217, 0.152319254, 0.056384013, 0.016330256, 0.004515435, 0.001397507, 0.000565504, 0.000654898, 0.000689994, 0.004207985, 0.014454495, 0.024040450, 0.037926582, 0.053419526, 0.053932250, 0.077389408, 0.131391036, 0.150845538, 0.137703039, 0.125758562, 0.064304569, -0.041187827, -0.047258484, 0.064251840, 0.111797159, 0.029422953, -0.031376130, 0.002356428, 0.038248026, 0.026837749, 0.006496825, 0.001902719, 0.006266466, 0.009712903, 0.017847761, 0.037628281, 0.053501630, 0.042508045, 0.033141911, 0.075296217, 0.144315373, 0.173066739, 0.144909948, 0.103122500, 0.075094867, 0.047285752, 0.025815966, 0.018873315, 0.010269366, 0.002642797, 0.010810388, 0.019774083, 0.013050298, 0.004267078, 0.005862588, 0.017645140, 0.029029179, 0.035658866, 0.041039232, 0.047082364, 0.049692449, 0.031917655, -0.001544403, -0.014038795, 0.004178480, 0.022781319, 0.018859420, 0.004909713, -0.001195662, -0.000469460, 0.000246010, -0.000099253, -0.000283935, 0.000169209, 0.000681123, 0.000620391, 0.000063497, -0.000265840, -0.000059162, 0.000110339, -0.000262659, -0.000502668, 0.000708496, 0.002808772, 0.003716755, 0.003372417, 0.007472200, 0.018420917, 0.025469268, 0.027396350, 0.030268033, 0.032880598, 0.037927537, 0.035809419, 0.018393359, 0.005010630, 0.006784860, 0.009370650, 0.007973417, 0.007311338, 0.007419723, 0.010089285, 0.014499066, 0.022063264, 0.031513556, 0.031908833, 0.026925160, 0.022188431, 0.005705845, -0.013531646, -0.004459784, 0.026615400, 0.045019632, 0.047820248, 0.049273358, 0.050488898, 0.053127494, 0.052514350, 0.044849946, 0.038553585, 0.037475405, 0.037240682, 0.038636863, 0.018308794, -0.007746692, 0.026546897, 0.085735794, 0.086323489, 0.052788113, 0.032410491, 0.018202392, 0.011688718, 0.007588363, 0.001910336, 0.007566665, 0.017730627, 0.018744228, 0.016454115, 0.016207420, 0.015974372, 0.015339765, 0.009203593, 0.003407877, 0.006702152, 0.009155921, 0.003026160, -0.003349366, -0.001675659, 0.002669881, -0.000768732, -0.009342418, -0.004454350, 0.025472908, 0.058579111, 0.076029813, 0.095869824, 0.104021762, 0.074695037, 0.032138855, 0.008782811, 0.002174787, 0.000642346, 0.000811898, 0.001279404, 0.002525021, 0.007577785, 0.020189698, 0.034833658, 0.037149035, 0.031717258, 0.027135179, 0.021028905, 0.011498184, 0.001697102, -0.000828484, 0.004363507, 0.010227093, 0.009907806, 0.005071969, 0.002335539, 0.000883910, -0.000150781, 0.000185159, 0.000785380, 0.005354075, 0.019519488, 0.035435674, 0.040057881, 0.039691453, 0.038024705, 0.021529352, -0.000933648, -0.004452832, 0.005542660, 0.011830777, 0.017929053, 0.024855894, 0.020861391, 0.003340699, -0.014283753, -0.004865858, 0.037532232, 0.067001800, 0.053562232, 0.032005039, 0.019389108, -0.001253058, -0.013661293, 0.020148926, 0.085523281, 0.125431669, 0.116871199, 0.070002914, 0.020985270, 0.003274638, 0.006334461, 0.008563397, 0.014424892, 0.024255352, 0.022848261, 0.014202105, 0.012788419, 0.013915720, 0.011099566, 0.010099262, 0.012853015, 0.019010489, 0.025575604, 0.024748770, 0.017502511, 0.010676040, 0.006414696, 0.003407229, 0.000956173, 0.001165866, 0.002696299, 0.005746153, 0.015154086, 0.028559609, 0.035302333, 0.036960609, 0.038162698, 0.039916508, 0.038136092, 0.022572553, 0.004477623, -0.001332419, 0.000022990, 0.001040375, 0.003827928, 0.009086247, 0.010795102, 0.007926462, 0.007279785, 0.008131861, 0.006706787, 0.005475364, 0.003800226, 0.001037502, 0.004259907, 0.018090046, 0.031099423, 0.028859582, 0.015451454, 0.004942467, 0.001345882, 0.000042040, -0.001146559, 0.001270717, 0.009837638, 0.017400507, 0.015916263, 0.007007115, -0.007024176, -0.015631812, 0.002950727, 0.043172752, 0.060673800, 0.052917269, 0.053767715, 0.048900201, 0.070701246, 0.164969820, 0.205916413, 0.109452086, 0.007867211, -0.013837480, 0.003303393, 0.013500175, 0.011716973, 0.007801594, 0.005049849, 0.004599739, 0.005984897, 0.007538996, 0.006456277, 0.002812311, 0.000854354, 0.001857773, 0.003173273, 0.005898274, 0.010120811, 0.011748507, 0.010406276, 0.006190366, 0.004500541, 0.008645294, 0.012299656, 0.011965831, 0.008988779, 0.008604525, 0.013263670, 0.018628402, 0.028000839, 0.050364274, 0.067863682, 0.055031695, 0.029752819, 0.016167468, 0.006633199, -0.001974625, 0.002713772, 0.018027286, 0.028327609, 0.028656974, 0.027040443, 0.025563177, 0.017614191, 0.021226938, 0.045992952, 0.046526410, 0.007256340, -0.022327477, -0.006937536, 0.032184502, 0.052963752, 0.047445550, 0.034452847, 0.025023683, 0.012836657, -0.007689935, -0.014536350, 0.021859873, 0.081655353, 0.127837866, 0.188077151, 0.242970228, 0.214279912, 0.152565573, 0.111972143, 0.057102515, 0.006162810, -0.004257937, 0.003913164, 0.005464581, 0.001265117, -0.002526416, -0.001159603, 0.003966021, 0.007815352, 0.012589762, 0.017588314, 0.012819872, 0.009984704, 0.032054324, 0.052426008, 0.039173186, 0.017957069, 0.008413131, 0.002315424, -0.000462851, 0.000689581, 0.001163865, -0.000049250, -0.000959700, -0.000319231, 0.000822491, 0.000881789, -0.000171891, -0.001513506, -0.001525920, 0.000881430, 0.003817112, 0.003613097, 0.000221431, -0.000774057, 0.002460716, 0.005164426, 0.006659500, 0.008918470, 0.011053931, 0.021788788, 0.045057754, 0.053124104, 0.034194078, 0.011906030, 0.002225475, 0.003406652, 0.006606403, 0.010355620, 0.020510309, 0.036936164, 0.042481146, 0.023480720, -0.004871732, -0.014164103, -0.001228500, 0.011862313, 0.013665267, 0.010682441, 0.008295436, 0.006676930, 0.005402349, 0.004695800, 0.004718783, 0.004088442, 0.002090619, 0.001120333, 0.000115733, -0.000168289, 0.002590529, 0.005081435, 0.006154569, 0.007821334, 0.007646553, 0.005013921, 0.002854175, 0.002004836, 0.001030521, -0.000303100, 0.006371098, 0.036389664, 0.076062045, 0.075627186, 0.030657155, -0.002745554, -0.003006025, 0.006108425, 0.010002704, 0.012762736, 0.016125684, 0.020146801, 0.029046051, 0.034858326, 0.024512825, 0.009395926, 0.003043211, 0.002387546, 0.001072480, -0.000287613, 0.000012377, 0.001019938, 0.003134450, 0.010077278, 0.023251821, 0.045587249, 0.092076662, 0.155304522, 0.166710615, 0.111953389, 0.065567140, 0.037222790, 0.008097311, -0.002340800, 0.006117629, 0.009050986, 0.003442021, 0.000837905, 0.001223863, 0.001162177, 0.001023185, 0.001470989, 0.002494913, 0.004144968, 0.004462257, 0.003066426, 0.001177559, -0.000769966, -0.001207338, 0.001027775, 0.003936728, 0.004188704, 0.003084891, 0.001701205, 0.000219893, 0.000063239, 0.001570258, 0.003531181, 0.003517057, 0.000794456, -0.001252508, -0.000241866, 0.001495905, 0.002188027, 0.003180094, 0.003514685, 0.002715436, 0.007142635, 0.016421675, 0.018646150, 0.016534242, 0.014983104, 0.010168425, 0.006879987, 0.005666215, 0.001497823, -0.001849245, 0.002947169, 0.009324908, 0.006901310, 0.001556143, 0.001170826, 0.005656900, 0.008226465, 0.003683276, 0.000386184, 0.004267695, 0.009162023, 0.012831433, 0.017775618, 0.023660647, 0.031121635, 0.046458513, 0.060746431, 0.046855650, 0.011440604, -0.007760370, -0.003440018, 0.004728070, 0.007604614, 0.009660717, 0.011845307, 0.011269596, 0.006031804, 0.000273947, -0.001198178, 0.000342541, 0.001485707, 0.001103474, 0.000353399, 0.000074561, 0.000084451, 0.000081720, 0.000137503, 0.000162859, 0.000130016, 0.000093256, 0.000067269, 0.000045182, 0.000042703, 0.000078788, 0.000128252, 0.000203595, 0.000303893, 0.000205197, -0.000055024, -0.000004831, 0.000182105, 0.000188812, 0.000168775, 0.000146120, 0.000149959, 0.000095991, -0.000069624, -0.000104081, 0.000167518, 0.000533529, 0.000569867, 0.000307393, 0.000579757, 0.001551113, 0.002475368, 0.003262027, 0.004767588, 0.005385272, 0.004067394, 0.003011267, 0.001536981, -0.000619079, -0.001424254, 0.000754659, 0.003810618, 0.003285705, -0.000150400, -0.001355257, 0.000737215, 0.002746999, 0.001654394, -0.000764068, -0.000349015, 0.003438593, 0.009679501, 0.023738903, 0.060772110, 0.108351830, 0.104170306, 0.041653506, -0.005759422, -0.007292541, 0.004639231, 0.008557813, 0.010188660, 0.012005742, 0.011927975, 0.013520694, 0.013708668, 0.012181671, 0.011360127, 0.008943354, 0.005723545, 0.003624714, 0.003144019, 0.002815477, 0.002520206, 0.001520954, 0.000033773, -0.000290024, 0.000771976, 0.001921620, 0.003357363, 0.006265790, 0.011506648, 0.016293179, 0.012688420, 0.003857518, 0.003121375, 0.006059851, 0.001151097, -0.004764143, -0.001898313, 0.004856863, 0.006639421, 0.003672342, 0.000755252, 0.000337879, 0.001402958, 0.001930033, 0.001294660, 0.001013489, 0.000875377, 0.000826775, 0.000984153, 0.001414965, 0.002063735, 0.002757887, 0.002992274, 0.003386956, 0.004013598, 0.004654267, 0.004589735, 0.004059428, 0.003084679, 0.001811775, 0.001001364, 0.000312260, -0.000038535, -0.000014493, 0.000024111, 0.000040230, 0.000064189, 0.000034376, -0.000074043, -0.000167067, 0.000316349, 0.001914389, 0.004105936, 0.006383982, 0.009235677, 0.013190835, 0.019167807, 0.024136833, 0.025403578, 0.026215435, 0.027031362, 0.023912946, 0.013957220, 0.004202468, 0.001804149, 0.003818327, 0.007154747, 0.011734822, 0.018464718, 0.035346097, 0.060967200, 0.066729230, 0.041188609, 0.011304988, -0.001383784, -0.001480481, 0.000181020, 0.000333803, -0.000079005, -0.000240441, 0.000076227, 0.000536489, 0.000572641, 0.000490908, 0.000394930, 0.000236353, 0.000118663, 0.000061353, -0.000023681, 0.000044288, 0.000338330, 0.000542950, 0.000744787, 0.001080275, 0.001562193, 0.001724320, 0.000818031, 0.000148705, 0.000637126, 0.001196995, 0.002064693, 0.003382446, 0.003179799, 0.002456021, 0.002104832, 0.001713209, 0.001022044, 0.000551872, 0.000132054, -0.000791197, -0.001072409, 0.000368952, 0.003096011, 0.005683505, 0.006283262, 0.004806330, 0.003175483, 0.002414152, 0.002209624, 0.002429338, 0.002141794, 0.001017771, 0.000396744, 0.001588017, 0.002988209, 0.002332438, 0.000128813, -0.001262409, 0.000313417, 0.004364576, 0.007082646, 0.005768651, 0.003030913, 0.001414874, 0.000638123, -0.000056990, -0.000654856, 0.000105940, 0.003423341, 0.008751296, 0.012580965, 0.010083071, 0.002562086, -0.003184519, -0.002395621, 0.002828775, 0.005416712, 0.003156584, 0.001110209, 0.000388103, 0.000570701, 0.001045841, 0.000812264, 0.000607487, 0.000648678, 0.000694793, 0.001265081, 0.002838672, 0.003879335, 0.002215430, -0.000931272, -0.002005332, -0.000036476, 0.002251042, 0.002752061, 0.001994084, 0.000581552, -0.000205150, -0.000105433, 0.000065126, 0.000034471, 0.000133186, 0.000241384, 0.000244615, 0.000260427, 0.000261724, 0.000254695, -0.000003514, -0.000058985, 0.000328008, 0.000561193, 0.000708158, 0.000834447, 0.000641139, 0.000523531, 0.000417621, 0.000370524, 0.000233329, -0.000194967, -0.000265713, 0.000675986, 0.002235055, 0.003300953, 0.002610791, 0.000918028, 0.000140806, 0.000024147, -0.000036886, 0.000058730, 0.000211038, 0.000299269, 0.000226686, -0.000173291, 0.000551613, 0.002004188, 0.001832455, 0.001259399, 0.001256553, 0.001230713, 0.001408353, 0.001214258, 0.000236619, -0.000636197, -0.000323221, 0.000721160, 0.001012762, 0.000661381, 0.000455980, 0.000315122, 0.000203627, 0.000135437, 0.000167186, 0.000183002, 0.000195562, 0.000206546, 0.000209203, 0.000165445, -0.000022749, -0.000138069, 0.000331086, 0.001458564, 0.002151000, 0.001475961, 0.002239467, 0.005869509, 0.006617954, 0.002409237, -0.000776283, -0.000344362, 0.000559738, 0.000765899, 0.001033527, 0.000822888, 0.000198764, -0.000324408, -0.000478450, -0.000049812, 0.001279811, 0.003172050, 0.003444797, 0.001918329, 0.000641261, 0.000208435, 0.000328158, 0.000594438, 0.000787409, 0.000897234, 0.000742078, 0.000844433, 0.001294876, 0.001590987, 0.002148340, 0.002672934, 0.002721695, 0.002360512, 0.002129809, 0.001793796, 0.000818500, 0.000381021, 0.000898431, 0.001427580, 0.001079705, 0.000596895, 0.000317366, 0.000157541, 0.000008588, -0.000036296, -0.000014405, 0.000027623, 0.000133482, 0.000271774, 0.000551521, 0.000772021, 0.000478504, -0.000067146, 0.000043246, 0.000686022, 0.001121674, 0.001467509, 0.001947121, 0.002577735, 0.003938450, 0.005664157, 0.005592838, 0.003224731, 0.001074057, 0.000892090, 0.002120940, 0.003059288, 0.002579214, 0.001968373, 0.001954415, 0.001955729, 0.002067487, 0.001889688, 0.001297155, 0.000908961, 0.001025146, 0.001147882, 0.000962667, 0.000818076, 0.000569356, 0.000247784, 0.000218844, 0.000285666, 0.000325495, 0.000368474, 0.000182845, 0.000252910, 0.000588960, 0.000531772, 0.000424138, 0.000217221, -0.000115026, -0.000110379, 0.000180302, 0.000282792, 0.000157628, 0.000055271, -0.000015385, -0.000037607, 0.000000535, 0.000005724, -0.000057695, -0.000010703, 0.000287186, 0.000425457, 0.000237018, 0.000081593, 0.000016332, 0.000042501, 0.000120052, 0.000201841, 0.000229984, 0.000233836, 0.000192532, -0.000004622, 0.000057374, 0.000247966, 0.000409422, 0.000632958, 0.000512455, 0.000463272, 0.000427853, 0.000415005, 0.000589631, 0.000559379, 0.000235478, -0.000049563, -0.000098633, -0.000079066, -0.000030389, 0.000311716, 0.000706861, 0.000594980, 0.000424567, 0.000242509, 0.000145959, 0.000165995, 0.000195043, 0.000315241, 0.000658004, 0.001489049, 0.003305242, 0.005988122, 0.006477971, 0.003071121, -0.000174085, -0.000250025, 0.000440855, 0.000715265, 0.001207080, 0.001201094, 0.000216142, -0.000625046, 0.000201352, 0.001764566, 0.001767727, 0.000843598, 0.000400115, 0.000156296, 0.000122148, 0.000087682, 0.000139543, 0.000126972, -0.000098685, -0.000350764, 0.000369791, 0.004072267, 0.010320511, 0.012131964, 0.006487004, 0.000860495, -0.000303749, 0.000431966, 0.001011424, 0.002303029, 0.004998435, 0.006838469, 0.006435477, 0.007644666, 0.009127997, 0.006152822, 0.002721564, 0.001495416, 0.000822482, 0.000556665, 0.000286399, -0.000203016, -0.000204798, 0.000561759, 0.001370205, 0.001468703, 0.001199397, 0.001007486, 0.000960664, 0.001113559, 0.001160686, 0.000809769, 0.000495155, 0.000460497, 0.000423757, 0.000402710, 0.000505918, 0.000450673, 0.000126138, 0.000146276, 0.000654705, 0.001418146, 0.003636421, 0.007947463, 0.009548405, 0.005674256, 0.001811753, 0.000423034, 0.000108369, -0.000111738, 0.000163971, 0.000810016, 0.000689897, 0.000226900, 0.000329812, 0.000437311, 0.000590722, 0.000698303, 0.000445290, -0.000054918, -0.000403767, 0.000555037, 0.003658735, 0.007189164, 0.008046668, 0.005980784, 0.003292014, 0.001538778, 0.000734507, 0.000123068, -0.000388617, -0.000260733, 0.000995713, 0.004617410, 0.013301390, 0.022690244, 0.022112057, 0.014309402, 0.008741395, 0.005744025, 0.003526311, 0.002149857, 0.000891468, -0.000368432, -0.000490357, 0.000530967, 0.001897111, 0.002633935, 0.001847967, 0.000938435, 0.000477873, 0.000196542, -0.000155921, -0.000178513, 0.001576997, 0.005895096, 0.009595605, 0.009068808, 0.006613493, 0.004866779, 0.003079012, 0.001639446, 0.000807812, 0.000439226, 0.000241481, 0.000146691, 0.000092589, 0.000108216, 0.000108386, 0.000094430, 0.000021778, 0.000042201, 0.000082025, 0.000298338, 0.000561117, 0.000433687, 0.000256332, 0.000134383, -0.000022136, -0.000082904, -0.000005108, 0.000188811, 0.000480560, 0.000543527, 0.000440139, 0.000458328, 0.000479542, 0.000582914, 0.000582079, 0.000387179, 0.000174267, 0.000079761, 0.000198120, 0.000454314, 0.000805230, 0.001584847, 0.003215807, 0.003536514, 0.001487130, 0.000026533, 0.000105571, 0.000422129, 0.000522321, 0.000504363, 0.000546689, 0.000496649, 0.000154293, 0.000013539, 0.000019057, 0.000028488, 0.000126420, 0.000258100, 0.000288064, 0.000155032, 0.000148585, 0.000168209, 0.000191529, 0.000162493, 0.000042444, 0.000137745, 0.000297530, 0.000243889, 0.000168146, 0.000110715, 0.000040410, 0.000006306, 0.000025472, 0.000064194, 0.000087301, 0.000023732, -0.000034631, 0.000034758, 0.000072643, 0.000105784, 0.000080249, -0.000082151, -0.000049111, 0.000323650, 0.000410887, -0.000023890, -0.000320521, -0.000031857, 0.000499631, 0.000561584, 0.000239438, -0.000047875, -0.000136621, 0.000352663, 0.000679467, 0.000365319, 0.000127514, 0.000068823, 0.000024921, 0.000259088, 0.000542754, 0.000759363, 0.001006154, 0.000885138, 0.000588499, 0.000370758, 0.000231496, 0.000114148, -0.000014988, -0.000092617, 0.000009289, 0.000089528, 0.000027421, 0.000118164, 0.000103784, -0.000195700, -0.000196386, 0.000312896, 0.000762419, 0.001215497, 0.001522904, 0.001222976, 0.000847201, 0.000589070, 0.000409115, 0.000333067, 0.000170177, 0.000023937, 0.000032068, 0.000152944, 0.000207691, 0.000030782, 0.000115354, 0.000747772, 0.000960783, 0.000667616, 0.000441594, 0.000205386, -0.000060830, -0.000114511, 0.000025976, 0.000340774, 0.000749134, 0.000514569, -0.000052832, -0.000124828, 0.000133700, 0.000286849, 0.000398120, 0.000548157, 0.000478414, 0.000181084, 0.000039525, 0.000073749, 0.000123182, 0.000224001, 0.000582238, 0.001107326, 0.001166526, 0.000966387, 0.000811475, 0.000688362, 0.000476424, 0.000389349, 0.000652750, 0.000720486, 0.000681237, 0.000659450, 0.000605625, 0.000954176, 0.001267770, 0.000893617, 0.000425584, 0.000312136, 0.000243650, 0.000236082, 0.000334982, 0.000476117, 0.000262110, 0.000054290, 0.000032675, -0.000111562, -0.000097415, 0.000106853, 0.000138330, 0.000222099, 0.000304842, 0.000053850, -0.000092985, 0.000014545, 0.000104790, 0.000141227, 0.000185213, 0.000115103, 0.000044639, 0.000046235, 0.000033421, 0.000044366, 0.000084791, 0.000143174, 0.000143900, 0.000202188, 0.000073327, -0.000114786, 0.000005204, 0.000104338, -0.000046974, -0.000145241, 0.000102421, 0.000510892, 0.000684497, 0.000746268, 0.000809577, 0.000812703, 0.000547049, 0.000100075, -0.000028212, 0.000049304, 0.000069212, -0.000000153, 0.000085007, 0.000336806, 0.000516350, 0.000444146, 0.000344313, 0.000266406, 0.000243850, 0.000194084, 0.000151314, 0.000135456, 0.000151377, 0.000152214, 0.000099092, 0.000005074, -0.000057393, -0.000008193, 0.000023249, -0.000001658, 0.000100976, 0.000154090, 0.000044029, -0.000012972, 0.000029144, 0.000066115, 0.000071995, 0.000083062, 0.000043698, 0.000002714, 0.000014649, 0.000009081, -0.000004097, 0.000023424, 0.000080163, 0.000069867, 0.000055188, 0.000050949, 0.000075939, 0.000121333, -0.000021230, -0.000084159, 0.000103761, 0.000225915, 0.000332441, 0.000430324, 0.000327629, 0.000380051, 0.000555293, 0.000340469, 0.000068752, -0.000003844, -0.000003551, 0.000006662, 0.000015436, 0.000023923, 0.000037991, 0.000042676, 0.000000349, 0.000023194, 0.000169573, 0.000236879, 0.000289611, 0.000290192, 0.000195773, 0.000116570, 0.000073225, 0.000041067, 0.000085115, 0.000159224, 0.000312185, 0.000316809, -0.000010734, -0.000105343, 0.000000228, -0.000035631, 0.000118188, 0.000454085, 0.000479543, 0.000417255, 0.000332824, 0.000118631, 0.000010038, 0.000064954, 0.000183345, 0.000316885, 0.000276367, -0.000214718, -0.000462234, 0.000268598, 0.001505590, 0.002080075, 0.002119690, 0.001849637, 0.000995410, 0.000461910, 0.000110268, -0.000270233, 0.000005794, 0.000846906, 0.001129899, 0.000616092, 0.000091358, -0.000085213, -0.000147693, -0.000172153, 0.000154077, 0.000716727, 0.000583428, 0.000448105, 0.000907947, 0.001010136, 0.001039086, 0.001146270, 0.001342218, 0.001894260, 0.002088602, 0.001061944, 0.000051147, -0.000157408, -0.000099181, 0.000012936, 0.000154488, 0.000274759, 0.000441728, 0.000698617, 0.000839291, 0.000709013, 0.000520018, 0.000369526, 0.000310289, 0.000209144, 0.000386679, 0.000916793, 0.001014453, 0.000648783, 0.000309116, 0.000089756, 0.000032960, 0.000121981, 0.000263810, 0.000440745, 0.000815926, 0.001057644, 0.000801214, 0.000195664, -0.000212932, -0.000038284, 0.000482642, 0.000641526, -0.000002871, -0.000448990, 0.000112410, 0.000698723, 0.000621097, 0.000377925, 0.000330976, 0.000347957, 0.000352987, 0.000470359, 0.000519316, 0.000148817, -0.000114465, -0.000025664, 0.000013546, -0.000090635, 0.000097453, 0.000422025, 0.000795361, 0.002090507, 0.002714145, 0.001784879, 0.001150562, 0.000650181, 0.000370770, 0.000190616, 0.000018004, -0.000089944, -0.000013941, 0.000139957, 0.000134479, 0.000162781, 0.000138764, 0.000021333, -0.000000925, -0.000005838, 0.000058152, 0.000382096, 0.000787940, 0.000581918, -0.000123934, -0.000197317, 0.000126646, 0.000128682, 0.000066314, 0.000038538, 0.000005641, 0.000194002, 0.000862607, 0.001525506, 0.001705596, 0.001362013, 0.001167736, 0.001189886, 0.001324290, 0.001409802, 0.001726608, 0.002251220, 0.002363878, 0.001943847, 0.001745042, 0.001569202, 0.001328600, 0.000334098, -0.000501971, -0.000214138, 0.000271599, 0.000224687, 0.000325017, 0.000915292, 0.001437590, 0.002104112, 0.002944239, 0.002948956, 0.001475125, -0.000162794, -0.000049800, 0.001295995, 0.001576032, 0.000359928, -0.000057320, 0.000487037, 0.000705456, 0.000331732, -0.000070725, 0.000023251, 0.000432924, 0.000718116, 0.000999780, 0.001385537, 0.001245690, 0.000860196, 0.000480300, -0.000113645, -0.000295149, 0.000100127, 0.000559583, 0.000762257, 0.000426532, -0.000140832, -0.000117990, 0.000287365, 0.000400984, 0.000359583, 0.000344567, 0.000313711, 0.000196250, -0.000167094, -0.000110000, 0.000342437, 0.000330106, -0.000065908, -0.000147115, 0.000223989, 0.000553360, 0.000693149, 0.000592356, 0.000309732, 0.000160760, 0.000065879, 0.000025070, -0.000000048, 0.000022629, 0.000103402, 0.000123466, 0.000001438, 0.000041264, 0.000395765, 0.000951292, 0.001502860, 0.001139150, 0.000182022, -0.000228609, -0.000067154, 0.000143773, 0.000116418, 0.000100016, 0.000227431, 0.000316637, 0.000472162, 0.000436860, 0.000204513, -0.000096058, -0.000202597, 0.000183227, 0.000653563, 0.000351160, -0.000146497, -0.000046140, 0.000037981, -0.000162200, 0.000039276, 0.000593972, 0.000525359, 0.000147191, 0.000052329, 0.000037023, 0.000058323, 0.000233824, 0.000437994, 0.000641981, 0.000954522, 0.000984564, 0.000709376, 0.000505782, 0.000362403, 0.000344728, 0.000358828, 0.000344304, 0.000254309, 0.000222990, 0.000240059, 0.000259694, 0.000381146, 0.000394015, 0.000178365, 0.000069769, 0.000037873, 0.000011661, 0.000000020, 0.000189274, 0.000408670, 0.000250310, 0.000023504, 0.000029200, 0.000175499, 0.000199258, 0.000035574, -0.000052585, -0.000009054, 0.000016091, 0.000028989, 0.000047543, 0.000051454, 0.000055774, 0.000058779, 0.000021974, -0.000072939, -0.000069777, 0.000109381, 0.000460370, 0.000943255, 0.000627204, -0.000266340, -0.000302120, -0.000004419, -0.000058899, -0.000036220, -0.000011364, 0.000130473, 0.000569569, 0.000448473, -0.000029215, 0.000068720, 0.000459885, 0.000642990, 0.000629989, 0.000617066, 0.000132701, 0.000059579, 0.002820035, 0.004997606, 0.000816454, -0.005086287, -0.002160267, 0.008754851, 0.014533400, 0.010518062, 0.005093905, 0.002498974, 0.000461253, -0.000994204, 0.000146804, 0.002093130, 0.001568398, 0.000137066, 0.000395130, 0.001323032, 0.001664895, 0.001464038, 0.001184253, 0.000939576, 0.000594308, 0.000291926, 0.000318918, 0.000505117, 0.000298449, -0.000360219, -0.000728903, 0.002074486, 0.013408924, 0.028886326, 0.027139537, 0.009043729, 0.000451451, 0.003076448, 0.003926741, 0.001823384, 0.000303815, 0.000478802, 0.001331113, 0.001867899, 0.002625910, 0.003958946, 0.004303788, 0.001878013, -0.001242770, 0.000331700, 0.004650326, 0.005765585, 0.005028646, 0.003229723, -0.001179227, -0.002600451, 0.007098580, 0.024943688, 0.027403426, 0.008829664, -0.003986485, 0.000695040, 0.007659756, 0.009522632, 0.012253129, 0.012052886, 0.007554760, 0.004896464, 0.004921271, 0.005987960, 0.007800282, 0.017594683, 0.045819683, 0.098264467, 0.148124176, 0.134987078, 0.059445363, 0.006002239, 0.006661471, 0.030346414, 0.035941305, 0.017703869, 0.003085211, 0.002660855, 0.004774198, 0.004357013, 0.003740252, 0.003173975, 0.002526009, 0.001286589, -0.000171245, -0.000194108, 0.001877131, 0.004897868, 0.007692251, 0.009047139, 0.006659658, 0.001832817, 0.000780397, 0.007951530, 0.021192361, 0.029924212, 0.030076540, 0.027819900, 0.026270304, 0.022610571, 0.012747426, -0.004458942, -0.015855863, -0.005044311, 0.024461958, 0.048079687, 0.048498272, 0.037975148, 0.029837684, 0.023682523, 0.017469315, 0.007988182, -0.001944221, -0.002516269, 0.006280341, 0.012130138, 0.011273876, 0.009485532, 0.005417030, 0.001394363, 0.001535447, 0.004451505, 0.006631295, 0.007036742, 0.008216491, 0.008712649, 0.005036104, 0.006937260, 0.017505023, 0.015944756, -0.000895114, -0.009202970, -0.000505620, 0.010831584, 0.015065075, 0.015585092, 0.017210686, 0.018409459, 0.022983027, 0.040036825, 0.049814248, 0.032607833, 0.007059862, -0.003572881, -0.000879703, 0.001886160, 0.001465817, 0.001057460, 0.000258622, -0.000042514, 0.004663858, 0.010624044, 0.008563200, 0.000758003, 0.001337413, 0.010996564, 0.016790241, 0.021537899, 0.025015654, 0.015971977, 0.002851381, -0.000453289, 0.003053721, 0.003843078, 0.001959728, 0.001078855, 0.000469487, 0.000204441, 0.002088494, 0.005418005, 0.009208327, 0.013273710, 0.018260793, 0.025006457, 0.030066959, 0.031772178, 0.030340388, 0.024456746, 0.010956755, -0.000764205, 0.013278520, 0.046346835, 0.064400198, 0.072017626, 0.078455435, 0.033835043, -0.038371808, -0.015288546, 0.089903632, 0.117958088, 0.034668964, -0.033262670, -0.019327019, 0.020789727, 0.025864461, 0.008254805, 0.003242710, 0.007886484, 0.010902261, 0.015010264, 0.019593836, 0.023036495, 0.023600133, 0.015760100, 0.011037449, 0.023650795, 0.039511777, 0.049103990, 0.062605654, 0.067144728, 0.036960744, -0.014793057, -0.038169990, -0.004222814, 0.056104955, 0.080351854, 0.048796287, 0.005751649, -0.010752554, -0.004832842, 0.004794986, 0.010319577, 0.015445025, 0.023108416, 0.029698960, 0.025372737, 0.008573202, -0.005117891, -0.004940229, 0.014849420, 0.056289833, 0.087905945, 0.080811565, 0.055554882, 0.035680200, 0.022929599, 0.008982748, -0.001856140, 0.004516009, 0.017337276, 0.014480684, 0.003282029, 0.002289643, 0.007357752, 0.010579242, 0.016341489, 0.020232292, 0.010467542, -0.002564219, -0.001646120, 0.004488630, 0.002329895, -0.006038531, -0.009306071, 0.004572897, 0.029439962, 0.047460581, 0.055292565, 0.060140033, 0.064699793, 0.054731519, 0.030545044, 0.002859213, -0.018626442, -0.013563241, 0.025428521, 0.069812271, 0.084001303, 0.075646009, 0.063997487, 0.054113451, 0.040947429, 0.010529346, -0.019204091, -0.006572169, 0.035124830, 0.054900174, 0.047048505, 0.037056397, 0.026775137, 0.005513113, -0.010980270, -0.001648767, 0.019443808, 0.024918083, 0.018936438, 0.015460382, 0.011077284, 0.008486878, 0.006623627, -0.004215801, -0.013229734, 0.009939427, 0.071085678, 0.115354190, 0.101356030, 0.072708621, 0.055361288, 0.017969562, -0.010196723, 0.068072478, 0.233086143, 0.280254523, 0.123108557, -0.047934831, -0.070538186, 0.010562845, 0.074628445, 0.077277522, 0.045379793, 0.015332144, 0.004538655, 0.002791199, 0.001254055, 0.013014552, 0.040712816, 0.056056786, 0.039888034, 0.011006840, -0.002037535, 0.005186409, 0.017930966, 0.026244295, 0.037977298, 0.052297425, 0.040757388, 0.008320876, -0.006741628, -0.000740954, 0.005286334, 0.007354041, 0.010220873, 0.009363851, 0.002990749, -0.003451857, -0.003079892, 0.005033239, 0.012797094, 0.015228338, 0.011726524, 0.001915362, -0.007127010, -0.007021934, 0.001647817, 0.008852631, 0.006673776, 0.001006986, -0.000483567, 0.001137168, 0.003634194, 0.007693992, 0.020307364, 0.047598810, 0.063560079, 0.043658719, 0.016282341, 0.005228010, 0.002829480, 0.002369082, -0.000121725, -0.002095750, 0.014898980, 0.046832438, 0.060463426, 0.056319663, 0.052514693, 0.038132009, 0.013625123, -0.000101232, -0.000194904, 0.001095394, 0.004487421, 0.014261923, 0.018998553, 0.011850274, 0.002864265, 0.000684915, 0.001806886, 0.001381477, 0.000923155, 0.001577130, 0.003744934, 0.005547784, 0.005273125, 0.003234499, 0.001247591, 0.000429428, 0.000573735, 0.001152310, 0.002201197, 0.006559545, 0.014518911, 0.017999352, 0.010405585, -0.001549128, -0.004656767, 0.000988299, 0.005082885, 0.005272954, 0.005108990, 0.004341629, 0.001918895, 0.000470836, 0.001646721, 0.002386084, 0.002045159, 0.001876048, 0.001544905, 0.001518163, 0.002405658, 0.003852028, 0.004723686, 0.005147689, 0.005595741, 0.005840950, 0.007080881, 0.007223870, 0.004104289, 0.001103455, 0.001129106, 0.002437899, 0.003349266, 0.004245529, 0.005241230, 0.005456996, 0.005485469, 0.005764527, 0.008960048, 0.016961112, 0.023484247, 0.028024517, 0.034882225, 0.037448101, 0.037029516, 0.036031439, 0.027922355, 0.017521114, 0.010020132, 0.002067273, -0.002774584, -0.001847650, 0.000921663, 0.003538396, 0.006049838, 0.008902749, 0.013548512, 0.015597225, 0.013154587, 0.010062834, 0.006965072, 0.005009618, 0.004153118, 0.003409042, 0.002968384, 0.000722792, -0.003095031, 0.002932013, 0.022426935, 0.035531873, 0.029297909, 0.012526113, -0.001255054, -0.004405390, 0.000438656, 0.005088977, 0.007061162, 0.009614002, 0.009978444, 0.004277341, 0.000052241, 0.000052716, 0.000126951, 0.001178546, 0.002615677, 0.004804570, 0.007338280, 0.006831661, 0.006258353, 0.005477176, 0.004955612, 0.006030634, 0.008247577, 0.008337905, 0.005502632, 0.032901183, 0.102025952, 0.129494502, 0.065811156, -0.016132287, -0.038053071, -0.004413422, 0.029100835, 0.031970445, 0.017687128, 0.004537972, 0.000178646, 0.001291852, 0.002764060, 0.013016379, 0.043410394, 0.070250890, 0.054593024, 0.010090891, -0.019082077, -0.015834400, 0.001698597, 0.010781492, 0.008266305, 0.003890309, 0.001037139, -0.000688899, 0.001764543, 0.007667464, 0.012918663, 0.015854253, 0.017931528, 0.021745130, 0.020525982, 0.011100292, 0.002847714, 0.000277568, 0.000045995, -0.000033908, 0.000099140, 0.000251381, 0.000334661, 0.000440466, 0.000561812, 0.000746242, 0.000957559, 0.001202927, 0.002007280, 0.002730480, 0.002694932, 0.005458000, 0.011323447, 0.012448112, 0.007048768, 0.002361902, 0.000762837, 0.000183945, 0.000096155, 0.000079932, 0.000188618, 0.000413896, 0.000704493, 0.001074736, 0.000773681, -0.000476484, -0.000910327, 0.002649704, 0.009390847, 0.014019476, 0.015059146, 0.014094543, 0.014163969, 0.014640217, 0.015526346, 0.017849319, 0.019335618, 0.019755334, 0.017967678, 0.014811673, 0.012184001, 0.009738519, 0.006603668, 0.001526580, -0.003002774, -0.004882910, -0.002374615, 0.012062493, 0.041502638, 0.061693461, 0.054890792, 0.039778940, 0.028127070, 0.001845606, -0.021547562, 0.011425766, 0.080301647, 0.100701351, 0.066216836, 0.036913789, 0.018165411, -0.000134489, -0.005451209, 0.000116894, 0.004391093, 0.004762145, 0.005842718, 0.009056902, 0.013943597, 0.024661490, 0.041690905, 0.055612787, 0.048684651, 0.026753389, 0.012051890, 0.005416987, 0.001539553, -0.000290864, 0.000064412, 0.000567098, 0.000244883, -0.000016237, 0.000530735, 0.001616186, 0.001433861, -0.000578880, -0.001796615, 0.000123050, 0.004255615, 0.007086714, 0.006032457, 0.004233311, 0.003743939, 0.002481645, 0.001533157, 0.001783696, 0.002084422, 0.005030636, 0.008162343, 0.004507926, -0.001412333, -0.000937828, 0.002974391, 0.003288848, 0.001433248, 0.000809129, 0.001867312, 0.003140140, 0.003002213, 0.002252377, 0.001962362, 0.000587421, -0.000626916, 0.003118317, 0.013723398, 0.025922976, 0.034284764, 0.036261228, 0.032311776, 0.031234606, 0.029027400, 0.022226054, 0.016943548, 0.011372446, 0.007665291, 0.006403221, 0.003873677, 0.002336353, 0.005374762, 0.009293198, 0.008099841, 0.002452481, -0.000911329, -0.000068266, 0.001768776, 0.001833045, 0.001171825, 0.001319086, 0.001371458, 0.001784867, 0.002469255, 0.002975713, 0.003553291, 0.003592276, 0.003459402, 0.003451053, 0.001611530, -0.000686950, 0.000718097, 0.003142785, 0.001744692, -0.001064082, -0.001515051, 0.001515218, 0.006531080, 0.006748023, 0.000826689, -0.001446192, 0.006400701, 0.016795848, 0.014246153, 0.003335735, -0.000373106, 0.000856600, 0.002464291, 0.012225955, 0.022972290, 0.019109597, 0.008520623, 0.003063431, 0.004970275, 0.010730034, 0.014525382, 0.013662837, 0.005891509, -0.004785217, -0.011419958, -0.005198669, 0.020036304, 0.048555203, 0.047652373, 0.022971591, 0.007943920, 0.004625417, 0.002660533, 0.003560964, 0.003940446, 0.000941941, -0.000923799, -0.000246129, 0.000483939, 0.000126184, -0.000510559, -0.000364847, 0.000710953, 0.002050424, 0.003928032, 0.006092320, 0.005432706, 0.001413646, -0.001098333, -0.000308693, 0.000248061, 0.000573239, 0.002660358, 0.002890458, 0.001022528, 0.000851155, 0.001281877, 0.001908912, 0.003563615, 0.005126203, 0.005214896, 0.002555330, -0.000259428, -0.000517314, 0.000201100, 0.000249216, -0.000133323, -0.000029905, 0.001326688, 0.002967968, 0.003330333, 0.002283556, 0.000380689, -0.000615488, 0.000201441, 0.001540404, 0.005846006, 0.016809051, 0.024338218, 0.018050399, 0.006894518, 0.001380390, 0.001014244, 0.002363064, 0.002886892, 0.003844503, 0.004987856, 0.004438956, 0.003904116, 0.003299764, 0.002364751, 0.001674785, 0.000995646, 0.000063560, -0.000166794, 0.000331294, 0.001584096, 0.008438116, 0.021551215, 0.029592578, 0.020695660, -0.000054671, -0.008912672, -0.000611518, 0.007509450, 0.005059059, -0.000311649, -0.000537124, 0.001932922, 0.002943203, 0.003439123, 0.003743270, 0.000839950, -0.005032690, -0.002740724, 0.015203317, 0.029868108, 0.021875120, 0.005612251, 0.001248396, 0.010091659, 0.022749611, 0.030726548, 0.033117119, 0.036258267, 0.034066070, 0.020582372, 0.009227705, 0.006253827, 0.003845110, 0.000633484, 0.000124364, 0.001512889, 0.002332876, 0.000277482, -0.002216789, 0.002888251, 0.013881752, 0.015062003, 0.004523537, -0.003885820, -0.000479728, 0.012644050, 0.025888895, 0.031568382, 0.021547611, 0.005296284, -0.000540712, 0.002005599, 0.003922965, 0.005700862, 0.008197162, 0.005364063, -0.001160946, -0.001030132, 0.006048595, 0.010925528, 0.010342686, 0.007786839, 0.005686034, 0.004660925, 0.004825277, 0.005283920, 0.005758848, 0.004737675, 0.001504685, -0.000641988, -0.001171015, -0.000931294, 0.000525715, 0.002844526, 0.004026709, 0.003039482, 0.000766377, -0.001027460, -0.001061038, 0.000779709, 0.003363634, 0.006468169, 0.012335532, 0.020854304, 0.026364137, 0.023906416, 0.017275314, 0.012091986, 0.008619245, 0.005490126, 0.002380882, 0.001252373, 0.001928556, 0.002867250, 0.003574575, 0.003723087, 0.004272968, 0.004751075, 0.003833503, 0.002773683, 0.001938933, 0.001057890, 0.000289656, -0.000235987, 0.000050164, 0.001226984, 0.002062462, 0.001524211, 0.001095785, 0.002295912, 0.003960843, 0.003555203, 0.002609038, 0.003870620, 0.007495185, 0.011757764, 0.015225909, 0.021302722, 0.020384827, 0.007135139, -0.002667957, -0.001277406, 0.003693436, 0.004575423, 0.001647147, -0.000632782, 0.000575221, 0.004529932, 0.008157097, 0.009276858, 0.007272834, 0.005279638, 0.005318231, 0.007757529, 0.009466761, 0.008392647, 0.009881741, 0.011735365, 0.011552676, 0.011403689, 0.006446240, -0.002263180, -0.002682157, 0.004683896, 0.007070098, 0.002804900, 0.000994969, 0.002060909, 0.002905720, 0.006199630, 0.007756734, 0.003562758, -0.001802630, -0.002965285, 0.003098033, 0.013695086, 0.018828264, 0.012691366, 0.004815262, 0.003595855, 0.006829891, 0.007997798, 0.003773517, 0.000790930, 0.001568861, 0.002595097, 0.007969362, 0.017415011, 0.020871623, 0.012886204, -0.005084769, -0.019456253, -0.009958472, 0.030501231, 0.077549257, 0.089322508, 0.065473575, 0.042503077, 0.028394622, 0.015104977, 0.006366300, 0.000293181, -0.007189914, -0.006864634, 0.012353124, 0.032231862, 0.021405836, -0.004688274, -0.008930745, 0.017011313, 0.043169417, 0.042542132, 0.035567210, 0.041743570, 0.044326757, 0.038533949, 0.033177882, 0.025157467, 0.008974724, -0.006319213, -0.003666660, 0.012681201, 0.021847605, 0.019525836, 0.016005809, 0.013095683, 0.008929094, 0.005940691, 0.003451735, 0.000693591, -0.000690826, 0.000011657, 0.000951866, -0.000140017, -0.002071697, 0.001325409, 0.015108657, 0.029691729, 0.030415066, 0.020713117, 0.013726345, 0.008322949, 0.002826833, 0.005548160, 0.009380628, 0.004975996, -0.000459772, -0.000640620, 0.001167926, 0.003061463, 0.008619393, 0.013769430, 0.007434649, -0.003736037, -0.002813456, 0.007664252, 0.010961696, 0.006023114, 0.003908531, 0.004256477, 0.004885225, 0.010119091, 0.017596315, 0.016374121, 0.007000047, 0.001013831, 0.000107064, 0.000197117, 0.000165658, 0.000421195, 0.001509965, 0.004447068, 0.006477602, 0.003250665, -0.001104933, 0.000400158, 0.004131431, 0.004111522, 0.002309181, 0.000592902, -0.000871617, -0.000530497, 0.001835007, 0.004005355, 0.003877021, 0.001979117, 0.001138795, 0.004004410, 0.009559609, 0.010558905, 0.006115448, 0.004503960, 0.002908904, -0.007424168, -0.014860587, 0.005007451, 0.048117194, 0.076925304, 0.074918514, 0.064484642, 0.053646021, 0.011799603, -0.024317642, 0.038229589, 0.162447813, 0.221428504, 0.202715925, 0.152842442, 0.087402940, 0.038206664, 0.020020995, 0.012898402, 0.007166814, 0.007107656, 0.012999317, 0.018768597, 0.028539312, 0.054520244, 0.097316437, 0.154711517, 0.185856490, 0.149394304, 0.094318759, 0.059630439, 0.026446702, -0.002369851, -0.009299864, -0.000276587, 0.007073443, 0.004251291, -0.005440709, -0.009169379, 0.003994782, 0.026705711, 0.034174664, 0.015396688, -0.006210529, -0.008697361, 0.003409635, 0.009837439, -0.004039703, -0.014362030, 0.021659664, 0.067516360, 0.048658222, -0.001614428, -0.011188276, 0.008077530, 0.022591944, 0.051250578, 0.088639528, 0.088260114, 0.057724980, 0.029783135, 0.014474145, 0.006132930, -0.002188466, -0.005424524, 0.001851267, 0.014945358, 0.026416507, 0.033551368, 0.029635894, 0.014119456, 0.005255941, 0.000659649, -0.004871277, 0.048026779, 0.197551422, 0.314148249, 0.277193249, 0.165347999, 0.087675300, 0.052660865, 0.022673787, 0.012311245, 0.053836793, 0.098657982, 0.095849670, 0.074314788, 0.057662282, 0.031672876, 0.004508061, -0.005052974, -0.001858644, 0.001525866, 0.001223955, -0.000610104, -0.001018866, 0.000380911, 0.000710018, -0.000391121, -0.000173044, 0.001197124, 0.001980962, 0.001935742, 0.001711461, 0.001393867, -0.000170187, -0.000095194, 0.008755438, 0.024475302, 0.026652058, -0.001090586, -0.029827532, -0.007916765, 0.054632377, 0.082158740, 0.038363723, -0.023591167, -0.031551553, 0.022721046, 0.093052763, 0.159478815, 0.265909441, 0.385277666, 0.325440612, 0.117794671, 0.046471800, 0.092196264, 0.075009370, 0.024438745, 0.011516644, 0.033902769, 0.057526769, 0.058756342, 0.056303564, 0.059816334, 0.058908248, 0.057104208, 0.063534574, 0.056349614, 0.032454870, 0.018353759, 0.018067641, 0.019940348, 0.020179393, 0.011959847, 0.005179143, 0.031961098, 0.087405487, 0.107421607, 0.089659278, 0.082011026, 0.067142196, 0.045067668, 0.035237464, 0.022458912, 0.014580164, 0.017443546, 0.001446279, -0.026817077, -0.003906759, 0.123739633, 0.267204995, 0.253281850, 0.140852329, 0.084243317, 0.017004517, -0.027135390, 0.159921244, 0.440665892, 0.455534095, 0.220301263, 0.019470473, -0.025956380, -0.002390699, 0.008498019, 0.000112499, -0.003611822, 0.005444165, 0.019816878, 0.067554917, 0.162904326, 0.233631820, 0.211372558, 0.130545938, 0.055429517, 0.011552998, -0.000425676, 0.000565617, 0.001461882, 0.011732461, 0.036028563, 0.044410003, 0.008182239, -0.033320142, -0.000574352, 0.114187026, 0.205753523, 0.200680053, 0.137743463, 0.077274386, 0.048415085, 0.034657778, 0.015127448, 0.023030070, 0.092032441, 0.182403507, 0.185126584, 0.092909019, 0.026423815, 0.039316951, 0.085649552, 0.092405811, 0.049955886, 0.009700666, 0.000445198, 0.007880598, 0.010844238, -0.000590932, -0.011990498, 0.009354894, 0.050212225, 0.062748872, 0.049882889, 0.041123211, 0.047459749, 0.068505226, 0.078778477, 0.073195168, 0.073209853, 0.077530282, 0.075998949, 0.061481966, 0.034422095, 0.012019954, 0.004482101, 0.004342815, 0.002327889, -0.000474999, 0.002548473, 0.018451551, 0.041900925, 0.049717160, 0.032143176, 0.004303043, -0.010972027, -0.004726418, 0.010635544, 0.015779893, 0.006524209, -0.000869454, 0.000168160, 0.001616278, 0.003094731, 0.005863351, 0.006002239, 0.003188135, 0.006025510, 0.033298969, 0.079148725, 0.125954394, 0.254196193, 0.426676572, 0.431000204, 0.320294005, 0.237252570, 0.121726043, -0.018449250, -0.059082734, 0.001441801, 0.055260842, 0.053094188, 0.035900462, 0.043749674, 0.052477446, 0.047473868, 0.045699010, 0.040252956, 0.028133503, 0.014358185, 0.008088286, 0.024968831, 0.070172522, 0.127657577, 0.140021305, 0.116726250, 0.097739630, 0.056395830, 0.016942601, 0.013065838, 0.017949185, 0.022192568, 0.031074666, 0.023764039, -0.008067987, -0.020232079, 0.022882187, 0.072278132, 0.064046724, 0.025545757, 0.010151076, 0.012789845, 0.012634268, 0.009279113, 0.007011512, 0.004175873, 0.001439509, -0.000332697, -0.000961719, -0.000168696, 0.000233382, -0.001054892, -0.001377560, 0.002777920, 0.007783095, 0.006896508, 0.002237472, 0.000094556, -0.000116948, -0.002307181, -0.003656389, 0.001209704, 0.008534912, 0.007572883, -0.003986771, -0.011821166, 0.001084343, 0.030057659, 0.046152738, 0.034006720, 0.014061049, 0.009102099, 0.014662088, 0.018000068, 0.020953928, 0.028500262, 0.030275061, 0.019398810, 0.009473412, 0.004596435, 0.000580470, -0.000253127, 0.000333705, 0.001946365, 0.010185953, 0.024440850, 0.039739586, 0.060177102, 0.089216619, 0.109775723, 0.110062018, 0.111215089, 0.110276233, 0.089959121, 0.071374238, 0.061600221, 0.050058929, 0.039746884, 0.031609752, 0.024925233, 0.019055267, 0.018838708, 0.027453389, 0.039968458, 0.059491585, 0.091087778, 0.134824452, 0.174667590, 0.128408672, -0.009893939, -0.082569933, -0.005966488, 0.109397174, 0.145730629, 0.143079440, 0.138278462, 0.081916597, 0.025684477, 0.021979100, 0.021612701, 0.004259395, -0.004549369, -0.000288210, 0.003164153, 0.002728461, 0.002397465, 0.006545259, 0.017639269, 0.024422116, 0.010948203, -0.013855810, -0.015647343, 0.013212791, 0.036409831, 0.032619521, 0.023801729, 0.025786455, 0.028856589, 0.026414287, 0.025490537, 0.026680487, 0.022944669, 0.017145592, 0.013099973, 0.009390033, 0.005680384, 0.003386798, 0.002646725, 0.003080412, 0.003277872, 0.002981200, 0.001706077, 0.000058635, -0.000267934, 0.000249151, 0.001578854, 0.009791553, 0.032231309, 0.060496222, 0.066093106, 0.042161151, 0.015008023, 0.003344853, 0.002397092, 0.002186241, 0.003673532, 0.007944094, 0.008618138, 0.003923818, 0.004497752, 0.014253127, 0.014769897, -0.001250636, -0.012121287, -0.003559748, 0.018115362, 0.042623941, 0.065044810, 0.097324184, 0.127499652, 0.097135789, 0.014684508, -0.008771279, 0.065965645, 0.135652307, 0.144940773, 0.144994142, 0.135452476, 0.087430394, 0.041758885, 0.021860630, 0.011190657, 0.001782033, -0.005042661, 0.006388838, 0.035280154, 0.047139020, 0.035964280, 0.024769652, 0.016228444, 0.007261733, 0.003090278, 0.001683520, 0.000909404, 0.001664635, 0.001373737, 0.000570749, 0.000518397, 0.000424672, 0.001483976, 0.004532312, 0.006667473, 0.006090883, 0.003477973, 0.001090368, 0.000581394, 0.000084041, -0.000819362, -0.000104531, 0.001784399, 0.002079661, 0.001194826, 0.001469043, 0.001782915, 0.008007326, 0.024397580, 0.032494266, 0.030793903, 0.029081780, 0.010087985, -0.010062862, 0.012770237, 0.057654043, 0.077882215, 0.090586787, 0.104658776, 0.095092154, 0.081205626, 0.062234374, 0.023697413, 0.003232500, 0.005333546, 0.008432759, 0.019536554, 0.045204448, 0.069196117, 0.085341976, 0.103301911, 0.110064915, 0.091930513, 0.062643359, 0.043375005, 0.028960276, 0.010973863, -0.000194678, -0.000135754, 0.004728494, 0.006621782, 0.004982416, 0.004645698, 0.005487245, 0.005202137, 0.005344916, 0.005233828, 0.005086130, 0.005497037, 0.004991372, 0.004049159, 0.003701701, 0.001333545, -0.002235034, -0.002082623, 0.000232896, 0.000913432, 0.002178739, 0.003609132, 0.002217392, 0.000111090, -0.001110666, -0.000946969, 0.000318415, 0.001002502, 0.000825262, 0.000615202, 0.000050634, -0.000284298, 0.000035267, 0.000317323, 0.000407143, 0.000526818, 0.000585574, 0.000430944, -0.000147558, -0.000250460, 0.000266480, 0.000371900, 0.000116520, -0.000020855, -0.000013994, 0.000021839, 0.000057616, 0.000162523, 0.000372013, 0.000602794, 0.000576033, 0.000398816, 0.000358309, 0.000270905, 0.000434359, 0.000802581, 0.000565699, 0.000166681, 0.000160459, 0.000001402, -0.000217445, -0.000090097, 0.000003729, -0.000115056, -0.000027358, 0.000271427, 0.000354375, 0.000101242, -0.000295391, -0.000491818, 0.000007983, 0.000813350, 0.000659123, 0.000018551, -0.000063718, 0.000046707, 0.000172506, 0.000438064, 0.000819410, 0.001191036, 0.001393937, 0.001587424, 0.001870577, 0.001872458, 0.000951079, -0.000269895, -0.000651833, -0.000168222, 0.000583053, 0.001594336, 0.002559547, 0.002310856, 0.001603917, 0.001811843, 0.003103322, 0.004576338, 0.004997737, 0.005257669, 0.005531841, 0.005636593, 0.007130323, 0.009397859, 0.012207113, 0.012911540, 0.011265007, 0.011206813, 0.011265537, 0.012283810, 0.018354151, 0.024023965, 0.027006677, 0.030784047, 0.030864964, 0.028290454, 0.026303018, 0.018951412, 0.011081007, 0.010313756, 0.010659515, 0.014395983, 0.026796323, 0.032744691, 0.022640391, 0.010292932, 0.005099229, 0.003258316, 0.002153377, 0.002474280, 0.002244012, 0.001639455, 0.001063937, 0.000091639, -0.000032525, 0.000310539, 0.000322219, 0.000198577, 0.000171197, 0.000150027, 0.000233988, 0.000211963, -0.000301714, -0.000095328, 0.001344450, 0.001408550, -0.000911459, -0.001584135, 0.001127877, 0.004198098, 0.009095123, 0.016114641, 0.018255479, 0.017297315, 0.016719111, 0.010344549, 0.000451650, -0.002421856, 0.000517422, 0.001266095, -0.002869068, -0.002945375, 0.016880651, 0.048102423, 0.062337620, 0.058034311, 0.051713374, 0.044653355, 0.031874145, 0.019716999, 0.011377504, 0.005862898, 0.003155312, -0.001038761, -0.001532054, 0.017960759, 0.052508724, 0.070931276, 0.065182594, 0.056455960, 0.047121466, 0.030441836, 0.014561401, 0.006587709, 0.003194885, 0.002269967, 0.001899916, 0.001180903, 0.000471765, 0.000515074, 0.000010681, -0.000815606, -0.000084673, 0.000990444, 0.000839180, 0.001521921, 0.003553352, 0.005678736, 0.009454514, 0.015240902, 0.016619475, 0.011838285, 0.007538399, 0.005014886, 0.004106480, 0.004099545, 0.003723357, 0.004135709, 0.006173103, 0.009173186, 0.013634985, 0.017714959, 0.018150881, 0.014802165, 0.011038499, 0.008211215, 0.005945324, 0.003040166, 0.000275638, -0.000142968, 0.000516073, 0.000945334, 0.002094007, 0.002399435, 0.000090707, -0.001888959, -0.000455317, 0.003004498, 0.004956391, 0.003080104, -0.000152407, -0.000907227, -0.000252325, 0.000372133, 0.001330627, 0.002748513, 0.005473978, 0.011157090, 0.019587299, 0.021621628, 0.013232305, 0.005042216, 0.001396373, 0.000292716, 0.000187989, 0.000261716, 0.000300817, 0.000203769, 0.000033848, 0.000000646, 0.000061835, 0.000071276, 0.000056952, 0.000105249, 0.000095239, 0.000133441, 0.000221491, 0.000237594, 0.000155654, 0.000117734, 0.000199735, 0.000357463, 0.000333212, 0.000533120, 0.001255368, 0.003392706, 0.008970095, 0.013811691, 0.009878794, -0.001583253, -0.007529012, 0.000055218, 0.013725879, 0.024723845, 0.036672174, 0.054103350, 0.066809324, 0.058642442, 0.034777971, 0.015780205, 0.006762140, 0.003209406, 0.001849332, 0.001234941, 0.000672279, 0.000018118, 0.000162028, 0.000862055, 0.000536382, -0.000646858, -0.000591519, 0.000944327, 0.001860337, 0.001463387, 0.000778874, 0.000619103, 0.001652643, 0.003756654, 0.006605921, 0.009786798, 0.013240277, 0.017862044, 0.021995025, 0.018473219, 0.007317310, 0.000286845, 0.000821214, 0.001744152, 0.001382336, 0.001295899, 0.001804098, 0.002979265, 0.004067280, 0.003005449, 0.000896240, 0.000573793, 0.001039849, 0.001355990, 0.002006939, 0.002434129, 0.002075405, 0.000594106, -0.000003980, 0.001772391, 0.003584383, 0.005337840, 0.007940113, 0.008101775, 0.006552894, 0.005229930, 0.003517663, 0.002593602, 0.001517469, 0.000312084, 0.000009997, 0.000145705, 0.000143310, -0.000080659, -0.000012552, 0.000726291, 0.001172330, 0.001097125, 0.000912503, 0.000876087, 0.001140166, 0.001629370, 0.001825862, 0.001664083, 0.001773259, 0.001950068, 0.002159810, 0.001759724, 0.000466038, 0.000033757, 0.000258816, 0.000271450, 0.000195635, 0.000142906, 0.000345801, 0.001146053, 0.002887462, 0.004132239, 0.003330800, 0.001317808, -0.000227571, 0.000065440, 0.001275649, 0.002479895, 0.004686119, 0.009202730, 0.013429052, 0.011809089, 0.006890368, 0.001868502, -0.001001471, 0.000012005, 0.003389879, 0.005314675, 0.003940674, 0.002285836, 0.002446403, 0.002627069, 0.001937451, 0.001200118, 0.000746842, 0.000310459, -0.000032259, -0.000462782, -0.001095019, 0.000058876, 0.006906001, 0.017230108, 0.020227919, 0.014161181, 0.010090582, 0.013284660, 0.018633245, 0.025663869, 0.044269590, 0.062628661, 0.050505322, 0.020158919, 0.003280306, 0.000446022, 0.000754582, 0.000575767, -0.000110130, -0.000272910, 0.000252082, 0.000214567, -0.000362388, 0.000031721, 0.001065073, 0.001589261, 0.001914364, 0.002224856, 0.002585222, 0.002644111, 0.002015487, 0.001492591, 0.001702503, 0.001588214, -0.000104066, -0.000977984, 0.000619311, 0.001708908, 0.000811428, -0.000397729, -0.000037013, 0.002994246, 0.007907288, 0.011252107, 0.008897163, 0.005195061, 0.005945116, 0.008884059, 0.012982086, 0.025846339, 0.047759657, 0.049824984, 0.024584944, 0.004904561, 0.000296951, 0.000194369, 0.000131050, 0.000468815, 0.000793149, 0.000854337, 0.003234865, 0.005936614, 0.004395559, 0.001266018, 0.000348561, 0.000240945, 0.000264976, 0.000562429, 0.000199065, -0.000192269, 0.000046509, 0.000177422, 0.000068232, 0.000053397, 0.000062587, 0.000312383, 0.001858645, 0.004101583, 0.004290145, 0.002519229, 0.001311823, 0.000963104, 0.000552134, 0.001277382, 0.003013215, 0.003253335, 0.001843497, 0.000162391, -0.000813409, -0.000729606, -0.000327500, 0.000034914, 0.000896831, 0.001775522, 0.001700875, 0.001003310, 0.000160605, -0.000378808, -0.000037698, 0.000731187, 0.001935211, 0.005105417, 0.008035882, 0.007470754, 0.005829399, 0.003295133, -0.000460877, -0.002148141, -0.000543555, 0.002179181, 0.003861101, 0.004080725, 0.003163189, 0.003408050, 0.006700594, 0.013095820, 0.015213142, 0.011479430, 0.011447903, 0.013306964, 0.016290859, 0.021315479, 0.017045143, 0.003851427, -0.002498205, -0.000632297, 0.001086642, 0.001145950, 0.001117667, 0.001082672, 0.000815573, 0.000743670, 0.001970607, 0.003518933, 0.002632360, -0.000055826, -0.000880330, 0.000512529, 0.001695593, 0.001915419, 0.002149240, 0.001516677, 0.000816659, 0.000976492, 0.000479032, 0.000108825, 0.000083369, 0.000091245, 0.000420897, 0.000447904, 0.000156914, 0.000148101, 0.000170265, 0.000722299, 0.003573203, 0.009439468, 0.013333083, 0.008977551, 0.001779968, -0.000655766, -0.000119285, 0.000082452, -0.000161453, -0.000113208, 0.000478475, 0.001181307, 0.001934748, 0.003018601, 0.004532374, 0.004764239, 0.003208157, 0.002183884, 0.002340260, 0.002514158, 0.002145501, 0.001710570, 0.001413793, 0.000582752, -0.000658986, -0.000596337, 0.000749686, 0.001762707, 0.002174969, 0.002207864, 0.002245884, 0.001622396, 0.000387594, 0.000960619, 0.002821890, 0.003039316, 0.002198975, 0.001611921, 0.000877285, 0.000284888, 0.000088075, 0.000041042, -0.000061799, -0.000224678, -0.000031492, 0.000821152, 0.001839062, 0.003772330, 0.005955720, 0.005459958, 0.003457079, 0.002824451, 0.004062519, 0.003956898, 0.001780460, 0.000113386, -0.000281640, -0.000081355, 0.000195137, 0.000518478, 0.001283252, 0.002763324, 0.003688929, 0.001917026, -0.000948331, -0.001583923, 0.000013000, 0.002017168, 0.003218802, 0.003592362, 0.003436840, 0.002644322, 0.001746110, 0.001124607, -0.000034313, -0.000844515, 0.000722490, 0.003575996, 0.006162552, 0.009316494, 0.014147838, 0.018854972, 0.016670130, 0.010274954, 0.007500282, 0.005537524, 0.004305487, 0.007310013, 0.011234387, 0.009313417, 0.002797765, -0.000363723, 0.000385417, 0.001140486, 0.001858796, 0.003252799, 0.003536406, 0.001763092, -0.000215146, -0.000538087, 0.000103262, 0.000246248, -0.000174199, -0.000186256, 0.000289885, 0.000401871, 0.000254090, 0.000189072, 0.000140445, 0.000084569, -0.000004805, 0.000001418, 0.000008775, -0.000054443, 0.000003045, 0.000134321, 0.000054015, -0.000029092, 0.000028844, 0.000032799, 0.000020999, -0.000002409, -0.000024860, 0.000092449, 0.000324657, 0.000652465, 0.001016962, 0.001318681, 0.001698209, 0.001907334, 0.001430845, 0.000692808, 0.000274138, 0.000320450, 0.000385395, 0.001064362, 0.002398361, 0.002230960, 0.000803241, -0.000028143, 0.000005216, 0.000263303, 0.000289707, 0.000376907, 0.000735029, 0.001289507, 0.002256478, 0.002266318, 0.001263622, 0.001104400, 0.001380044, 0.001845861, 0.003083900, 0.002855331, 0.001093592, 0.000506834, 0.000604996, 0.000635031, 0.000808184, 0.000396942, -0.000128377, -0.000422610, -0.000313185, 0.000492066, 0.001323464, 0.002301013, 0.003720837, 0.004515668, 0.005342774, 0.005333762, 0.001813325, -0.001626574, -0.001589985, 0.000968415, 0.003726422, 0.004490900, 0.003483943, 0.002618065, 0.002354417, 0.002139908, 0.001953275, 0.001614672, 0.001020317, 0.000666927, 0.000164573, -0.000135521, 0.001066158, 0.003327788, 0.004567621, 0.004922956, 0.005258904, 0.003850959, 0.000262003, -0.001891053, 0.000490649, 0.004491399, 0.006157237, 0.007802790, 0.007932465, 0.003324864, -0.000898913, -0.001818253, -0.000095707, 0.003793619, 0.009377144, 0.009743135, 0.002659002, -0.001644770, -0.000100985, 0.001821594, 0.003253595, 0.005942673, 0.006898525, 0.004866454, 0.003167074, 0.001963902, 0.001246386, 0.000701179, 0.000320176, 0.000234748, 0.000098693, 0.000354139, 0.001446534, 0.002175552, 0.001862542, 0.001265489, 0.000838612, 0.000500768, 0.000064910, 0.000096276, 0.000289286, 0.000237699, 0.000590985, 0.001004368, 0.001001138, 0.000994359, 0.000759478, 0.000362687, 0.000198970, 0.000382579, 0.000603700, 0.001446600, 0.002337818, 0.001351293, -0.000197476, -0.000414635, 0.000244754, 0.000592917, 0.000540762, 0.000460168, 0.000385322, 0.000211609, 0.000065941, -0.000032619, -0.000134346, -0.000101875, -0.000007850, 0.000138335, 0.000577969, 0.000659158, 0.000028066, 0.000063139, 0.000826888, 0.000849541, 0.000301771, 0.000166786, 0.000273535, 0.000338143, 0.000478604, 0.000516688, 0.000589519, 0.000885699, 0.001616026, 0.002138008, 0.001793544, 0.001310470, 0.000971809, 0.000647186, 0.000143606, -0.000117275, 0.000049011, 0.000306328, 0.001458785, 0.003928694, 0.004292490, 0.001928299, 0.000887790, 0.002036102, 0.002968550, 0.002284925, 0.001559316, 0.000830817, -0.000883341, -0.000774870, 0.004360955, 0.009034122, 0.005164479, -0.001338907, -0.001080712, 0.002762091, 0.003593633, 0.002390734, 0.001594078, 0.000997833, 0.000470715, -0.000070920, -0.000542904, -0.000318247, 0.000976052, 0.002282431, 0.002915735, 0.003836277, 0.004299969, 0.004808700, 0.005319859, 0.003598859, 0.001691918, 0.000804999, 0.000442388, 0.000289197, 0.000145940, -0.000049342, -0.000018298, 0.000144485, 0.000175395, 0.000060775, -0.000137261, -0.000055955, 0.000493785, 0.000837217, 0.000757038, 0.000757747, 0.000598899, 0.000546339, 0.000574354, 0.000702108, 0.000784108, 0.000967044, 0.000973836, 0.000379818, 0.000082421, 0.000059117, 0.000077793, 0.000288293, 0.000230911, 0.000025558, 0.000345860, 0.001346548, 0.001600153, 0.000561555, -0.000416145, -0.000276857, 0.000630275, 0.001303071, 0.001320674, 0.001040480, 0.000838385, 0.000309979, -0.000166729, 0.000018801, 0.000462432, 0.000570572, 0.000626845, 0.000511299, 0.000273985, 0.000155015, -0.000009199, -0.000059323, 0.000064487, 0.000103631, 0.000171704, 0.000395482, 0.000376764, 0.000265165, 0.000176508, 0.000046017, -0.000057266, -0.000037299, 0.000149071, 0.000346913, 0.000416870, 0.000499649, 0.000474925, 0.000292402, 0.000181724, 0.000064369, 0.000045860, 0.000007551, 0.000126630, 0.000361028, 0.000536115, 0.000649966, 0.000675179, 0.000718438, 0.000506650, 0.000163501, 0.000005652, 0.000050596, 0.000135826, 0.000254058, 0.000584808, 0.001087102, 0.001100617, 0.000552794, 0.000461764, 0.001568319, 0.002672480, 0.002703504, 0.002665633, 0.002036565, 0.000640329, -0.000275881, -0.000050382, 0.000829577, 0.001157717, 0.000896001, 0.000630509, 0.000340723, 0.000167631, 0.000074033, 0.000028567, 0.000047959, 0.000062522, 0.000060549, 0.000026844, -0.000078814, 0.000332866, 0.001183178, 0.001046105, 0.000009331, -0.000291898, 0.000408203, 0.000806814, 0.000564981, 0.000477993, 0.000199441, 0.000019039, 0.001470316, 0.003882987, 0.004697632, 0.004077654, 0.002748627, 0.001571537, 0.000964776, 0.000731245, 0.000793739, 0.000836896, 0.001113368, 0.001279056, 0.000895463, 0.000617856, 0.000166769, -0.000263435, 0.000212998, 0.000923818, 0.000794133, 0.000185867, -0.000046086, 0.000025908, 0.000053905, 0.000065724, 0.000079744, 0.000132877, 0.000093981, -0.000036656, -0.000040486, 0.000023737, 0.000095328, 0.000158197, 0.000172023, 0.000205658, 0.000338175, 0.000636487, 0.001039910, 0.001009178, 0.000745388, 0.000637251, 0.000544736, 0.000458437, 0.000358245, 0.000360081, 0.000225432, 0.000072973, 0.000245046, 0.000778154, 0.001040445, 0.000625536, 0.000215024, 0.000080237, 0.000018259, -0.000000923, -0.000016019, -0.000022576, 0.000088597, 0.000231745, 0.000166312, 0.000065536, 0.000082460, 0.000136009, 0.000133707, 0.000145897, 0.000114457, -0.000000588, 0.000019596, 0.000007673, -0.000049496, 0.000146903, 0.000269125, 0.000183174, 0.000103333, 0.000038516, 0.000027756, 0.000040804, 0.000043823, 0.000053579, 0.000096948, 0.000177747, 0.000211559, 0.000031266, -0.000031527, 0.000167504, 0.000138713, -0.000134056, -0.000117058, 0.000369665, 0.000816762, 0.000659784, 0.000155771, -0.000028723, -0.000008574, 0.000013970, 0.000031047, 0.000069310, 0.000037210, -0.000091403, 0.000036813, 0.000352677, 0.000426478, 0.000294670, 0.000205975, 0.000041241, -0.000027714, 0.000102394, 0.000094002, 0.000052207, 0.000060993, 0.000049703, 0.000044693, 0.000017446, -0.000046097, -0.000004977, 0.000187041, 0.000271760, 0.000107950, -0.000182979, -0.000115542, 0.000518887, 0.000771970, 0.000115484, -0.000081274, 0.000202516, 0.000079366, -0.000078566, -0.000002099, 0.000058394, 0.000001925, -0.000043355, -0.000008694, 0.000067856, 0.000155939, 0.000179885, 0.000071862, -0.000018732, 0.000029198, 0.000162344, 0.000161461, -0.000022843, -0.000051189, 0.000030153, 0.000069782, 0.000172339, 0.000234015, 0.000289212, 0.000277709, 0.000062801, -0.000048603, 0.000082964, -0.000031171, -0.000532470, 0.000039533, 0.003270279, 0.005712304, 0.003471435, -0.000099810, -0.001371857, -0.000506403, 0.000537298, 0.000317833, -0.000276975, 0.000157378, 0.000809658, 0.000722948, 0.000324713, 0.000117676, 0.000012538, -0.000087128, 0.000129027, 0.000509999, 0.000675783, 0.000636547, 0.000081199, -0.000448937, 0.000031814, 0.000664522, 0.000285186, -0.000169735, -0.000063509, -0.000005207, -0.000080348, 0.000147301, 0.000247242, 0.000012736, -0.000038600, -0.000080120, -0.000124984, 0.000180757, 0.000547422, 0.000257300, -0.000275866, -0.000081907, 0.000538633, 0.000562621, 0.000356436, 0.000192070, -0.000081140, -0.000124824, 0.000054250, 0.000123762, -0.000012403, -0.000105849, 0.000069113, 0.000375330, 0.000529854, 0.000409036, 0.000266094, 0.000146907, 0.000022284, 0.000043756, 0.000063472, 0.000060183, 0.000073877, 0.000093730, 0.000153264, 0.000185619, 0.000111222, 0.000025472, 0.000012560, 0.000007244, 0.000012176, 0.000000856, -0.000023637, 0.000017232, 0.000102850, 0.000167531, 0.000222432, 0.000159548, 0.000108337, 0.000035901, 0.000037434, 0.000075420, 0.000215014, 0.000348885, 0.000152419, -0.000081431, -0.000102318, 0.000030869, 0.000071457, 0.000011000, 0.000118600, 0.000204485, 0.000135194, 0.000081949, 0.000083493, 0.000112962, 0.000116272, 0.000087489, 0.000044404, 0.000019105, 0.000053860, 0.000102992, 0.000118518, 0.000153470, 0.000109509, 0.000113392, 0.000067911, 0.000034716, 0.000182167, 0.000453742, 0.000347435, 0.000222324, 0.000282859, 0.000250655, 0.000644998, 0.001014186, 0.001017150, 0.001035212, 0.000880142, 0.000565429, -0.000477462, -0.000723555, 0.001840478, 0.004367994, 0.003880371, 0.002117691, 0.001171139, 0.000686093, 0.000453431, 0.000421892, 0.000223830, -0.000040862, -0.000037842, 0.000123101, 0.000198570, 0.000210240, 0.000222876, 0.000238467, 0.000227851, 0.000167341, -0.000024352, -0.000038570, 0.000043450, 0.000033706, 0.000034836, 0.000027858, 0.000019191, 0.000111551, 0.000463407, 0.001117252, 0.002002832, 0.002326438, 0.001498884, 0.000520742, 0.000249452, 0.000154696, 0.000086495, 0.000099970, 0.000114946, 0.000387648, 0.001490473, 0.002851268, 0.002772223, 0.002096361, 0.002472126, 0.003336934, 0.003138896, 0.001816008, 0.001013299, 0.000165206, -0.000344094, 0.000174323, 0.000501260, 0.000494746, 0.000468151, 0.000235060, 0.000051153, 0.000012295, 0.000151633, 0.000529576, 0.001201486, 0.001361950, 0.000593046, 0.000067579, 0.000133590, 0.000247920, 0.000296823, 0.000406692, 0.000534824, 0.000523110, 0.000499105, 0.000518639, 0.000388952, 0.000800330, 0.001934386, 0.002386728, 0.001390852, -0.000488409, -0.001614051, -0.000542247, 0.001806334, 0.002513159, 0.001494317, 0.001399004, 0.002193965, 0.003331250, 0.007297894, 0.020004741, 0.035202985, 0.036006770, 0.026741288, 0.020385289, 0.013553429, 0.003997523, 0.000846152, 0.004001367, 0.006547558, 0.010785634, 0.019771171, 0.019847975, 0.014511567, 0.037072845, 0.072074236, 0.070186158, 0.046584987, 0.030721601, 0.016644324, 0.008238620, 0.008272194, 0.006121248, 0.003014805, 0.003153148, 0.006374177, 0.009175726, 0.006127230, -0.000574617, -0.002218502, 0.001455555, 0.003361824, 0.002463455, 0.001397478, 0.001050685, 0.001977174, 0.003928727, 0.005293767, 0.004201714, 0.002345861, 0.001134027, -0.000592440, -0.002424377, -0.001804437, 0.002252080, 0.009289021, 0.015952426, 0.017678105, 0.016792513, 0.015743747, 0.014471259, 0.007810690, -0.004462565, -0.002613027, 0.016976381, 0.023493158, 0.006088053, -0.007856029, -0.003217312, 0.004883010, 0.003503261, -0.001357295, -0.001490870, 0.001286714, 0.002897898, 0.003397525, 0.003890374, 0.004231146, 0.003040671, 0.001219543, 0.000241010, 0.000335236, 0.000727741, 0.000588284, -0.000386009, -0.000489466, 0.001034043, 0.001470399, -0.000739266, -0.002207881, 0.001331242, 0.006785446, 0.005528316, -0.002036017, -0.005671133, -0.000089576, 0.010542563, 0.020808010, 0.028187883, 0.034087907, 0.042088556, 0.042612168, 0.029609402, 0.015157414, 0.007543099, 0.003296932, 0.000751575, 0.000128195, 0.000010405, 0.000026979, 0.000406877, 0.000542037, 0.000529655, 0.000542366, 0.000452909, 0.001124605, 0.001664631, 0.001402285, 0.001003225, 0.000846227, 0.000970683, 0.001195767, 0.001186847, 0.000584825, -0.000047097, -0.000126895, 0.000176409, 0.000921659, 0.004865629, 0.014752730, 0.024095779, 0.022360398, 0.011243942, -0.001621241, -0.008909730, -0.004850893, 0.008485953, 0.023687947, 0.035055448, 0.047655895, 0.059243848, 0.043520935, 0.007772025, -0.011666978, -0.004666419, 0.012239833, 0.024470430, 0.028632045, 0.027025716, 0.025553947, 0.020902699, 0.008560076, -0.003219411, -0.004383365, 0.002971005, 0.008764374, 0.010698609, 0.012424708, 0.015860009, 0.021630323, 0.030925471, 0.038358372, 0.030343126, 0.009099873, -0.005833806, -0.004940937, 0.003326396, 0.008996714, 0.011352749, 0.014021652, 0.015052790, 0.011279151, 0.004809241, -0.000836068, -0.002836753, -0.000733956, 0.002650191, 0.005318455, 0.010720511, 0.016522442, 0.018637691, 0.020969954, 0.020861781, 0.017688384, 0.016340439, 0.016133827, 0.015986041, 0.017180446, 0.009537658, -0.008432802, -0.013660064, 0.010471868, 0.045678175, 0.058255137, 0.045762037, 0.036068824, 0.028715501, 0.017345694, 0.017095877, 0.030106116, 0.046218229, 0.049619425, 0.031953677, 0.010337792, 0.002245125, 0.001600754, 0.001052979, 0.012551113, 0.040336263, 0.056047294, 0.044057057, 0.028830334, 0.023248693, 0.020602014, 0.018265006, 0.015519782, 0.012231965, 0.015009631, 0.019238198, 0.013452028, 0.004173486, 0.002008976, 0.004301765, 0.005019450, 0.005245620, 0.004649933, 0.000342540, -0.002407565, 0.007501965, 0.027019971, 0.032789954, 0.018712694, 0.006693117, 0.002109306, -0.002081790, -0.003510573, -0.000129184, 0.005081575, 0.011919723, 0.025705671, 0.055913367, 0.106272480, 0.141334059, 0.116867216, 0.062145928, 0.029596331, 0.017236393, 0.010383069, 0.006426532, 0.003965771, 0.002302772, 0.001728070, 0.000968982, -0.000657666, -0.001526776, 0.000202146, 0.004709032, 0.008308387, 0.005556975, 0.000034136, 0.000573146, 0.005469287, 0.007982906, 0.007799969, 0.006409130, 0.005186549, 0.005083967, 0.005114888, 0.005103607, 0.004963110, 0.005032623, 0.007179931, 0.010388834, 0.016737328, 0.031303907, 0.039685049, 0.031592630, 0.022802793, 0.014896057, 0.001354271, -0.005081781, 0.004394582, 0.015446974, 0.016705943, 0.012796054, 0.012010440, 0.021083273, 0.035756703, 0.057721766, 0.110655742, 0.162069119, 0.133638898, 0.053682872, 0.006545189, -0.000486732, 0.000509028, 0.000792747, 0.002255736, 0.002710895, 0.001573007, 0.000650851, 0.000692379, 0.001125878, 0.000855003, 0.000203108, 0.000437958, 0.000763123, 0.001407807, 0.001705084, 0.000425938, 0.000275647, 0.001955250, 0.003012830, 0.004084212, 0.004448611, 0.001588734, 0.000180219, 0.003246663, 0.005456833, 0.005083776, 0.006140231, 0.011507180, 0.022667490, 0.027563987, 0.017957115, 0.005775135, -0.000740885, -0.001112635, 0.001357376, 0.003485288, 0.005880048, 0.010299228, 0.016386049, 0.020674800, 0.018518238, 0.015028442, 0.011563318, 0.005919748, 0.002008245, 0.001352969, 0.000860520, 0.001868571, 0.004977846, 0.006486180, 0.006848007, 0.007880252, 0.007645416, 0.006453585, 0.005455078, 0.004851660, 0.004424419, 0.001552844, -0.001512091, 0.001883229, 0.014218245, 0.023957334, 0.020830953, 0.016727628, 0.017179551, 0.015505606, 0.014074504, 0.011254282, 0.001923972, -0.003907953, 0.000498269, 0.006363478, 0.010475895, 0.017429581, 0.021443187, 0.022351151, 0.030216230, 0.039802140, 0.037780973, 0.023764060, 0.009214084, 0.000578519, -0.000418471, 0.000584362, 0.005668067, 0.034709524, 0.078155814, 0.094529787, 0.080374146, 0.059398014, 0.033717672, -0.006154864, -0.025838513, 0.000130816, 0.030736803, 0.028340542, 0.011509873, 0.003246677, 0.001542866, 0.001262110, 0.000987418, 0.002066880, 0.004855718, 0.010125873, 0.011526347, 0.003482817, -0.001118463, 0.002400685, 0.001716990, -0.005182730, -0.006237839, 0.003662464, 0.010861039, 0.005568509, 0.001526371, 0.006957792, 0.011584364, 0.011105501, 0.009811433, 0.007943021, 0.002679913, -0.001433847, 0.000157540, 0.003298200, 0.004366975, 0.004315368, 0.004231449, 0.003970196, 0.003644093, 0.003473477, 0.003730418, 0.003949005, 0.005459487, 0.009570274, 0.014560649, 0.021117374, 0.029545890, 0.030755648, 0.020717786, 0.010504283, 0.007885504, 0.009747264, 0.011425216, 0.014511958, 0.022291708, 0.032040524, 0.033620830, 0.024905671, 0.017508378, 0.010416163, 0.002698098, 0.000628764, -0.001276086, -0.005061600, -0.001459343, 0.012133553, 0.022166493, 0.019326548, 0.011779641, 0.007079225, 0.004283553, 0.003989679, 0.004609759, 0.005728861, 0.008832482, 0.008803051, 0.004901699, 0.002568825, 0.001099499, -0.000710594, -0.000012522, 0.005385058, 0.014463300, 0.023137869, 0.025555912, 0.018367120, 0.007767821, 0.001207276, -0.000686739, 0.000144577, 0.001480693, 0.001986000, 0.001695483, 0.001449825, 0.001221745, 0.000898637, 0.000480274, 0.000122672, 0.000079432, 0.000133753, 0.000182160, 0.000245337, 0.000597502, 0.001954126, 0.003113917, 0.002124490, 0.000636504, 0.000501531, 0.000547751, 0.000395214, 0.000219049, -0.000331999, 0.000954210, 0.005345185, 0.006043254, 0.000255925, 0.000431104, 0.011992635, 0.021990297, 0.027116060, 0.033536390, 0.035966268, 0.036922938, 0.035495044, 0.019965253, 0.001659112, -0.003400355, -0.000363256, 0.001195050, 0.000377757, -0.000054438, 0.000161609, 0.000436571, 0.001772674, 0.003586662, 0.004040591, 0.002781440, 0.000744556, -0.000620154, -0.000931736, -0.000220304, 0.000687797, 0.000803252, 0.000400441, -0.000166640, -0.000433176, -0.000025706, 0.000547907, 0.000693163, 0.000620587, 0.000567793, 0.000466985, 0.000479319, 0.000535102, 0.000624834, 0.000698720, 0.000723080, 0.000814506, 0.001170579, 0.000888299, -0.001113612, -0.002053260, 0.001476547, 0.006276842, 0.005901287, 0.002571065, 0.001084365, 0.000257794, -0.000145588, 0.000359508, 0.000695473, 0.001006447, 0.001456014, 0.000817396, -0.000170251, -0.000069366, 0.001251951, 0.002385781, 0.003088522, 0.003736306, 0.002488937, 0.000487741, 0.000317952, 0.000736218, 0.001334025, 0.002968047, 0.003157264, 0.001295367, -0.000313496, -0.000376642, 0.000175800, 0.000274186, 0.000097254, 0.000017277, -0.000002751, -0.000014083, 0.000101683, 0.000201931, 0.000054168, -0.000002673, 0.000115862, 0.000153650, 0.000213517, 0.000173426, 0.000151583, 0.000181550, 0.000277053, 0.000436914, 0.000306603, 0.000178016, 0.000100924, 0.000286915, 0.001248862, 0.004534345, 0.009464803, 0.011353400, 0.009559588, 0.007467981, 0.005728682, 0.003596200, 0.001858501, 0.001242182, 0.000850215, 0.000282756, 0.000239662, 0.003503594, 0.009831006, 0.013838937, 0.015541508, 0.016561809, 0.017740020, 0.017155236, 0.008951720, -0.002218372, -0.005458211, -0.000427986, 0.004152550, 0.003861418, 0.001521975, -0.000494884, -0.001421031, -0.000762161, 0.000521590, 0.001266847, 0.002300228, 0.004702798, 0.008526284, 0.015179269, 0.027617802, 0.042008616, 0.044833260, 0.032108798, 0.020766564, 0.017693804, 0.014133999, 0.010908177, 0.008063899, 0.003479713, 0.001005668, 0.001096956, 0.001692693, 0.002253359, 0.003162804, 0.005882996, 0.008525878, 0.008749735, 0.008785926, 0.006849095, 0.000898700, -0.002553042, 0.000074443, 0.002754882, 0.002023389, 0.000196381, -0.000998312, -0.000743123, 0.000424871, 0.001059953, 0.000741762, 0.000155462, -0.000149492, -0.000017652, 0.000376813, 0.000616202, 0.000860198, 0.000894038, 0.000276044, 0.001814793, 0.007923141, 0.013455597, 0.013394795, 0.011885468, 0.010280259, 0.006480942, 0.003179385, 0.001568063, 0.000836150, 0.000913089, 0.001068512, 0.001381222, 0.001806687, 0.002263244, 0.002822811, 0.003357970, 0.002949639, 0.001128651, -0.000530832, -0.000312669, 0.000998737, 0.002797721, 0.007855251, 0.015492159, 0.016319774, 0.008785528, 0.004498718, 0.003443789, 0.003055135, 0.011996909, 0.018775827, 0.010396952, 0.000593825, -0.001206436, 0.000527903, 0.001093348, -0.000126132, -0.000987405, 0.000407638, 0.002221786, 0.002255391, 0.001395514, 0.000777401, 0.000432042, 0.000078155, -0.000123504, 0.000191398, 0.000597918, 0.000195967, -0.000487972, 0.000079872, 0.001952424, 0.002926852, 0.003229532, 0.003853707, 0.003078657, 0.000283237, -0.001580751, -0.000989048, -0.000107399, 0.000736111, 0.003643674, 0.007547845, 0.009535483, 0.011654526, 0.013284275, 0.009989407, 0.005552300, 0.003090068, 0.001625781, 0.001622317, 0.002153595, 0.002943650, 0.003194938, 0.001353567, -0.000535690, -0.000375949, 0.000043425, -0.001737048, -0.002272425, 0.003763677, 0.011113925, 0.011239826, 0.007852251, 0.005830293, 0.004405272, 0.002976881, 0.000376476, -0.001389606, 0.002429822, 0.010670893, 0.015027835, 0.014085486, 0.013030690, 0.009130415, -0.000114597, -0.004833128, 0.000489542, 0.005948331, 0.003375674, -0.002162976, -0.002324324, 0.002053805, 0.003932861, 0.002467084, 0.001651263, 0.000992660, 0.000507683, 0.001305568, 0.001911285, 0.003306852, 0.006449456, 0.009619209, 0.013532923, 0.013949127, 0.005499847, -0.004644166, -0.006152325, 0.001554637, 0.010267725, 0.012809494, 0.011419934, 0.011416318, 0.010109502, 0.009604627, 0.018969635, 0.029218049, 0.027333474, 0.016640817, 0.004251009, -0.001855609, -0.000557668, 0.002822755, 0.004220075, 0.003748187, 0.002599262, 0.001719073, 0.001072554, 0.000626042, 0.000782909, 0.001018316, 0.002282600, 0.004467122, 0.003811245, 0.000892406, -0.000566288, -0.000060423, 0.000849163, 0.001551319, 0.002572282, 0.004278719, 0.005568300, 0.005107014, 0.003564661, 0.001589834, 0.000367900, 0.000184465, 0.000456075, 0.000560616, 0.000405404, 0.000563424, 0.000635542, 0.000044037, -0.000705044, -0.000767652, 0.000401352, 0.002829010, 0.005722671, 0.007391716, 0.008457234, 0.009524311, 0.008199226, 0.003919815, -0.000605040, -0.001236702, 0.001488969, 0.003360041, 0.002389924, 0.000772329, 0.000189469, -0.000049740, -0.000153910, 0.000947540, 0.002557993, 0.002415937, 0.000657595, -0.000230428, 0.000400324, 0.000522079, -0.000337033, -0.000320476, 0.003060604, 0.008686484, 0.009991442, 0.003159152, -0.005675347, -0.006402677, 0.004958245, 0.022626982, 0.039097068, 0.055937498, 0.079085833, 0.108989092, 0.126199636, 0.106010819, 0.061277300, 0.024101391, 0.005752170, 0.000130870, -0.000702578, -0.000055179, 0.001060503, 0.002133919, 0.002806284, 0.003511050, 0.004439157, 0.005357923, 0.006332542, 0.010318631, 0.012763430, 0.009362045, 0.005023341, 0.003218848, 0.004795157, 0.008183185, 0.011830922, 0.013854296, 0.010782976, 0.007115593, 0.009058368, 0.017308214, 0.022020013, 0.011882126, -0.001860042, -0.004592493, 0.000321477, 0.004044598, 0.006312722, 0.008116070, 0.009614435, 0.011199330, 0.008943795, 0.004711576, 0.002765193, 0.002114832, 0.001492504, 0.000886952, 0.000683849, 0.000773200, 0.001052594, 0.001198080, 0.000758218, 0.000313827, 0.001619425, 0.003602825, 0.003832827, 0.003498284, 0.003143554, 0.001255393, -0.001079083, 0.000374350, 0.007422712, 0.015615564, 0.021251109, 0.023235963, 0.023298503, 0.023183986, 0.018839632, 0.009253364, -0.000491616, -0.004008711, -0.001428744, 0.002647701, 0.005837651, 0.007072414, 0.004864204, 0.002222270, 0.001005604, 0.000440069, 0.000285472, -0.000025751, 0.000383751, 0.004248448, 0.012667756, 0.016490206, 0.008257277, -0.000180317, -0.000097969, 0.002329799, 0.002850741, 0.002003480, 0.001267276, 0.000739418, 0.000275594, 0.000092122, 0.000005695, 0.000068165, 0.000282759, 0.000530105, 0.000691177, 0.000484848, 0.000129222, 0.000076700, 0.000178709, 0.000338481, 0.000978496, 0.001738813, 0.001553855, 0.000777004, 0.000356399, -0.000188821, -0.001078753, -0.000413705, 0.002412418, 0.004961288, 0.007159927, 0.010301364, 0.014142548, 0.013899956, 0.007788955, 0.003256859, 0.001558342, 0.000229890, 0.000782482, 0.002096137, 0.002003458, 0.001933940, 0.001495903, 0.000399937, 0.005699146, 0.022057436, 0.037528723, 0.034089274, 0.011764502, -0.006259304, -0.005578032, 0.004807683, 0.012054986, 0.015172742, 0.018449115, 0.020268564, 0.013907165, 0.005358224, 0.002889981, 0.001241377, -0.001097597, -0.000560585, 0.002853343, 0.005923407, 0.008130908, 0.011199466, 0.011187327, 0.003814935, -0.002722327, -0.001470963, 0.002730465, 0.004291822, 0.004351472, 0.004437224, 0.002751365, -0.000243006, -0.000598620, 0.001135346, 0.001348932, 0.000040267, -0.000556408, -0.000104315, 0.000289783, 0.000131889, -0.000253112, -0.000197655, 0.000798089, 0.001677892, 0.001377935, 0.000723284, 0.000529645, 0.001088908, 0.002013147, 0.002566880, 0.002427228, 0.000968130, -0.001729590, -0.003046952, 0.000916301, 0.009666889, 0.015764989, 0.014881889, 0.011542730, 0.009245919, 0.009350071, 0.012542070, 0.016719210, 0.018118057, 0.011835130, 0.005141048, 0.009501880, 0.019490582, 0.031630807, 0.057087970, 0.085241343, 0.081596834, 0.047758340, 0.022273816, 0.013459550, 0.008452239, 0.005658616, 0.001044580, -0.003663389, 0.003234609, 0.019260163, 0.026448100, 0.019783460, 0.011946131, 0.006963293, 0.001625030, -0.000224090, 0.001166150, 0.001608869, 0.001636395, 0.001549466, 0.001140484, 0.001259653, 0.001434117, 0.001458830, 0.001762051, 0.009283185, 0.038671774, 0.067130883, 0.049401199, 0.011602278, 0.000907146, 0.012634365, 0.021731189, 0.020884853, 0.018000980, 0.014963205, 0.009532322, 0.005984148, 0.007512408, 0.010825719, 0.010195592, 0.004982073, -0.000395243, 0.002337870, 0.011445542, 0.020418626, 0.035911704, 0.058057016, 0.060075236, 0.031358007, 0.001730385, -0.005781050, 0.001780150, 0.008886624, 0.011486734, 0.014422901, 0.014063365, 0.010457440, 0.009061669, 0.008616296, 0.008039145, 0.007992628, 0.011655219, 0.018280100, 0.022002437, 0.018589971, 0.004714703, -0.011339315, -0.013565709, 0.004000646, 0.027860038, 0.033120161, 0.011729333, -0.008537853, -0.006607624, 0.004370603, 0.011488138, 0.019513083, 0.031174101, 0.038750332, 0.044810551, 0.049463686, 0.028230400, -0.014566255, -0.010844216, 0.072951546, 0.160790753, 0.168258625, 0.111724805, 0.062535000, 0.035034724, 0.016113939, 0.008622640, 0.005929679, 0.004147123, 0.003455887, 0.001893224, 0.000846107, 0.001238019, 0.001886488, 0.003856862, 0.009359557, 0.016668149, 0.023685078, 0.037666706, 0.053309875, 0.039027396, 0.005603672, 0.023917962, 0.101249364, 0.135871754, 0.074658447, 0.013068591, 0.028400729, 0.071042744, 0.154310723, 0.429080882, 0.842663123, 1.042155989, 0.908737534, 0.643113303, 0.383790176, 0.207186633, 0.131359301, 0.111662208, 0.112023688, 0.104527968, 0.083955757, 0.042781301, -0.016427129, -0.042361467, 0.005042848, 0.100232129, 0.162848980, 0.120425943, 0.016196085, -0.025396056, 0.005940721, 0.032827603, 0.041982035, 0.054001047, 0.050796046, 0.023546862, -0.007875814, -0.022432278, -0.011362086, 0.014755091, 0.023942382, -0.003265446, -0.010535202, 0.063154479, 0.138059050, 0.096985968, -0.001225904, -0.018273863, 0.034570513, 0.061040072, 0.054845073, 0.050233432, 0.026748637, 0.008960673, 0.098825348, 0.228826849, 0.217623510, 0.117326411, 0.052916637, 0.027423082, 0.011386008, 0.000885232, 0.019437463, 0.069479062, 0.111345063, 0.121926266, 0.131484548, 0.146923702, 0.161248115, 0.188516730, 0.187094135, 0.117453254, 0.031557727, 0.003926060, 0.060281798, 0.157578333, 0.233223288, 0.277257794, 0.336535843, 0.393454118, 0.376096054, 0.306802552, 0.232639519, 0.148382128, 0.075578385, 0.036960518, 0.012166272, -0.017565721, -0.020270156, 0.041185953, 0.148537920, 0.251970800, 0.273895348, 0.177701524, 0.063992055, 0.015742157, 0.011239434, 0.013426594, 0.010523689, 0.007425378, 0.007612752, 0.006468583, 0.007874929, 0.008996270, -0.007694451, -0.022084257, 0.034392808, 0.150605090, 0.194501555, 0.120889213, 0.046595822, 0.028912730, 0.014903867, 0.028232956, 0.154874953, 0.287906041, 0.179830286, -0.022106312, -0.010512977, 0.096250581, 0.101952225, 0.063716536, 0.039900030, 0.014688869, -0.000021411, -0.000239727, -0.000632930, -0.003353506, -0.001073369, 0.004478583, 0.001090600, -0.010858273, -0.006900230, 0.029949327, 0.064467879, 0.049564033, 0.012594000, 0.004632111, 0.009883965, -0.003739214, -0.019834893, -0.002770964, 0.041216791, 0.072208814, 0.094117413, 0.119211789, 0.091007249, 0.025792708, 0.008612982, 0.015648666, 0.001939616, -0.011845851, 0.000852422, 0.032721152, 0.060253104, 0.090272639, 0.132852602, 0.132370045, 0.078235573, 0.060884692, 0.090093382, 0.123200765, 0.191856973, 0.287888152, 0.340899066, 0.329314334, 0.244773683, 0.136735169, 0.072502550, 0.033987054, -0.000617511, -0.012592544, -0.000541512, 0.010475242, 0.005353306, -0.002879050, 0.001466373, 0.013049806, 0.020545261, 0.023827188, 0.025138851, 0.025330024, 0.025478252, 0.024386791, 0.028464286, 0.037826128, 0.037359347, 0.033079002, 0.027896919, 0.007336603, -0.009408573, -0.002484994, 0.012173633, 0.013503421, 0.003465015, -0.003003038, 0.003323546, 0.015168385, 0.015343564, 0.006909604, 0.009322821, 0.018046789, 0.023833348, 0.031938973, 0.035831051, 0.034837807, 0.038416757, 0.039878135, 0.035861043, 0.033214536, 0.025761013, 0.011292008, 0.007309459, 0.009654690, 0.014284994, 0.031939899, 0.031410479, -0.000089836, -0.013171813, 0.003894975, 0.011262010, -0.002247773, -0.008968090, 0.005437824, 0.019324642, 0.019547190, 0.018077339, 0.013049839, -0.000427164, -0.007177213, 0.006324182, 0.024487356, 0.019383165, -0.008834529, -0.022987328, 0.004434527, 0.042532123, 0.044579842, 0.021605885, 0.001908216, -0.012494730, -0.016282988, -0.003140408, 0.016823030, 0.031168079, 0.044046521, 0.056265772, 0.068544945, 0.083278051, 0.101059787, 0.129604822, 0.128841754, 0.065154470, -0.006231295, -0.029867418, -0.013464679, 0.007306011, 0.011405127, 0.007779982, 0.008666890, 0.013564581, 0.027633686, 0.047252779, 0.052085819, 0.038944460, 0.024484195, 0.016040096, 0.009468783, 0.002848772, -0.001621954, -0.000158019, 0.006810122, 0.010335277, 0.003043525, 0.002140458, 0.033019867, 0.065070780, 0.044405276, -0.007442113, -0.024823628, 0.008447092, 0.045270675, 0.041680840, 0.018651383, 0.009124548, 0.006580151, 0.004937898, 0.013124371, 0.023217519, 0.022468210, 0.017878823, 0.014220029, 0.010968207, 0.007954574, 0.002303415, -0.004098716, -0.004959083, 0.008199648, 0.034987441, 0.055238739, 0.061917603, 0.069540291, 0.071840308, 0.077961765, 0.096043419, 0.090075461, 0.068916181, 0.057422818, 0.040414807, 0.026193635, 0.013962500, -0.010667936, -0.007076552, 0.054115408, 0.104427376, 0.095540918, 0.071521277, 0.057206347, 0.045970845, 0.040541050, 0.024694211, 0.001500820, 0.000601911, 0.012748844, 0.018734882, 0.025761022, 0.028771040, 0.029158205, 0.053390125, 0.078378174, 0.050788127, -0.003024736, -0.008394072, 0.026368836, 0.048597597, 0.071601091, 0.090625967, 0.044663775, -0.012144711, 0.031212101, 0.124251119, 0.157210830, 0.135440404, 0.105752015, 0.082683068, 0.057862415, 0.034636641, 0.023099221, 0.016749059, 0.009878916, 0.003847599, 0.002885172, 0.005813511, 0.010036342, 0.017242508, 0.035571531, 0.066575961, 0.092450145, 0.077606546, 0.028173292, -0.000236405, 0.001319928, 0.003937065, 0.026182138, 0.081088318, 0.099349167, 0.049176739, 0.008187679, 0.006358357, 0.007684283, 0.008816647, 0.013478569, 0.014604198, 0.015140628, 0.015177292, 0.014221232, 0.013298969, 0.015893437, 0.026369744, 0.035570583, 0.029686872, 0.007358317, -0.017582881, -0.020727050, 0.011401288, 0.058576198, 0.080254430, 0.058777371, 0.022979259, 0.006858314, 0.003316158, 0.000474771, 0.004569989, 0.017201635, 0.018317936, 0.010495895, 0.046958926, 0.121034824, 0.117819707, 0.013096238, -0.043438539, 0.011326127, 0.065526813, 0.060982058, 0.044952425, 0.032192902, 0.020482686, 0.015457017, 0.008708667, 0.013807459, 0.053733945, 0.142171643, 0.198917634, 0.132513635, 0.023277712, -0.022086777, -0.010155968, 0.009614478, 0.013889417, 0.006756624, -0.000169018, 0.000364389, 0.010157597, 0.027892822, 0.053596424, 0.086286633, 0.138961890, 0.186167945, 0.185519389, 0.172833317, 0.158697612, 0.128258585, 0.078345948, 0.011554070, -0.007334532, 0.081641170, 0.246317982, 0.354720872, 0.331633639, 0.252979262, 0.207791373, 0.151075249, 0.040240860, 0.193894805, 0.779344757, 1.076148376, 0.608970985, 0.037496790, -0.095008878, 0.012933502, 0.066274182, 0.026889137, -0.007723302, -0.003795622, 0.005222314, 0.006681201, 0.008117450, 0.006292081, 0.000519598, -0.001798017, 0.001646492, 0.016928303, 0.043570535, 0.050117446, 0.020231205, -0.013482998, -0.017659093, 0.001826197, 0.017784268, 0.016464697, 0.004733723, -0.001947236, -0.000428640, 0.001519778, 0.001951693, 0.003175086, 0.017285937, 0.065431268, 0.118392054, 0.111441599, 0.067964098, 0.064020904, 0.075479292, 0.053091559, 0.027893774, 0.014644202, -0.003554956, -0.012683669, 0.010904662, 0.055870443, 0.110450664, 0.155480865, 0.132516549, 0.084169017, 0.060318112, 0.046146271, 0.040646443, 0.020279497, -0.002978520, 0.001510804, 0.012959632, 0.021202381, 0.040632342, 0.061979554, 0.100308929, 0.129239485, 0.079645601, 0.025080453, 0.039749745, 0.063929798, 0.085599345, 0.126199152, 0.124387992, 0.045634112, -0.036850646, -0.039417558, 0.034266253, 0.112837486, 0.141855725, 0.125579203, 0.106275178, 0.089879866, 0.064247988, 0.042888038, 0.027127773, 0.012103288, 0.006492004, 0.004177957, 0.004472646, 0.014907784, 0.037825584, 0.096089380, 0.173627273, 0.175746730, 0.104752821, 0.054341168, 0.031901016, 0.012851698, 0.009837399, 0.012283564, 0.001552037, -0.005093709, 0.004098294, 0.009646448, 0.000240700, -0.007262986, 0.003641515, 0.018572462, 0.014972971, -0.000286923, -0.002987180, 0.024254464, 0.068151438, 0.079969484, 0.041488623, 0.013304420, 0.021920452, 0.029253839, 0.032920190, 0.042172600, 0.030950566, -0.001585460, -0.009333211, 0.030956635, 0.072788146, 0.064601008, 0.038502503, 0.026352503, 0.016202219, 0.009781011, 0.020376465, 0.047999895, 0.087823369, 0.162468345, 0.251931798, 0.214495665, 0.078094322, 0.070501268, 0.148304874, 0.152853728, 0.134154367, 0.106127837, 0.024192159, -0.032623008, -0.008515047, 0.014760795, -0.014441016, -0.005877320, 0.098323647, 0.173318266, 0.132115572, 0.071110554, 0.092645068, 0.198735820, 0.323588228, 0.463433220, 0.690199033, 0.879324895, 0.717627012, 0.370742753, 0.169630804, 0.074720734, 0.020322829, 0.003923895, 0.000147902, -0.002040312, 0.003413806, 0.019605126, 0.045382156, 0.047210874, -0.007368956, -0.054672450, 0.000896057, 0.127854331, 0.185155829, 0.144545867, 0.101696336, 0.060211270, -0.003286255, -0.027026612, 0.009618247, 0.047645972, 0.063488088, 0.071265851, 0.069237310, 0.074588887, 0.070608961, 0.048975302, 0.035279970, 0.006948704, -0.013062138, 0.015827543, 0.040217876, 0.015939767, -0.011449736, -0.005200555, 0.010765306, 0.011094051, 0.002457482, -0.001596020, 0.000049160, 0.002002743, 0.005411327, 0.012616894, 0.012702239, -0.000242283, -0.007290005, 0.002067142, 0.012158292, 0.010444625, 0.006151213, 0.005091212, 0.003807406, 0.002729064, 0.001799019, 0.000560256, 0.000092499, 0.000037881, -0.000009183, -0.000007140, 0.000078315, 0.000202766, 0.000160400, -0.000039576, -0.000050668, 0.000064177, 0.000049914, -0.000062654, 0.000144716, 0.001216388, 0.002336916, 0.001791285, 0.000385140, 0.000217044, 0.000700690, 0.001136779, 0.002545569, 0.004730582, 0.007943517, 0.013387022, 0.013991946, -0.000524833, -0.011609969, 0.018465744, 0.077972857, 0.110261848, 0.088626242, 0.044758169, 0.020964927, 0.003652037, -0.014557625, 0.002175686, 0.052210099, 0.079772112, 0.078129212, 0.073575259, 0.053180208, 0.033056569, 0.058087974, 0.154347197, 0.286509271, 0.299811675, 0.173038561, 0.072349238, 0.031873098, 0.012252994, 0.011916445, 0.016899105, 0.020149340, -0.004703872, -0.029463941, 0.052899091, 0.187608994, 0.214460522, 0.208263101, 0.176866780, 0.033036470, -0.041336778, 0.049506064, 0.119155973, 0.103723368, 0.092680564, 0.088397596, 0.085198763, 0.086051615, 0.059361480, 0.017119243, -0.003991334, -0.001754896, 0.004309497, 0.001643714, -0.004258671, 0.012232676, 0.077778404, 0.136543528, 0.108486705, 0.052490954, 0.025919216, 0.006141961, -0.005180993, 0.003493508, 0.014847943, 0.010907241, 0.000551868, -0.003448349, -0.002285527, -0.000627954, 0.000923996, 0.001675791, 0.001836312, 0.003522814, 0.003584999, -0.000171201, -0.002985309, -0.001823585, 0.000354179, 0.000507133, -0.000041831, 0.001165247, 0.003893041, 0.005284036, 0.003261708, 0.000179547, -0.001100854, -0.000518521, 0.000706526, 0.001520600, 0.001561140, 0.001673954, 0.002031200, 0.002378380, 0.003349711, 0.002798665, 0.001041709, 0.000561136, 0.001994134, 0.003557314, 0.002958157, 0.001119889, 0.000374044, 0.000683178, 0.001075770, 0.002587240, 0.008744567, 0.028566594, 0.065125845, 0.088398594, 0.089261240, 0.091328612, 0.080171482, 0.045300169, 0.013304293, -0.004419614, -0.007649401, 0.003993063, 0.016232530, 0.015692166, 0.008604389, 0.003979356, 0.001840774, -0.000139426, -0.001823329, -0.000238299, 0.009767835, 0.022544552, 0.015303133, -0.009526892, -0.014905081, 0.015925412, 0.060183732, 0.098193835, 0.130082697, 0.158176925, 0.196356743, 0.217503370, 0.151631261, 0.006715477, -0.108969980, -0.075414151, 0.111627159, 0.296001633, 0.318218954, 0.237030427, 0.174205971, 0.107140243, 0.026459348, -0.007497695, 0.004660294, 0.013036627, 0.002718568, -0.006896827, -0.000055006, 0.017766622, 0.033632353, 0.051045085, 0.078614342, 0.096528504, 0.079715591, 0.045782986, 0.029448786, 0.025294208, 0.022220344, 0.029205809, 0.030509916, 0.016383490, 0.005287775, 0.001756028, 0.000425369, 0.000303146, 0.000255573, 0.000715240, 0.003559451, 0.007688516, 0.010785556, 0.015903993, 0.014784812, 0.006024431, 0.002448401, 0.002750692, 0.001342072, 0.000314515, 0.001254427, 0.003356423, 0.005504831, 0.008842016, 0.013206741, 0.012750387, 0.007074515, 0.003467285, 0.000882000, -0.001380580, 0.000115308, 0.002545715, 0.001620298, -0.001076363, -0.001509747, 0.000963651, 0.002893989, 0.002499453, 0.001324806, 0.000284243, -0.000237716, 0.000037530, 0.000951924, 0.001892639, 0.001874349, 0.000892355, -0.000091177, -0.000320597, 0.000192718, 0.000768136, 0.001026731, 0.001795758, 0.002836049, 0.004129616, 0.005671665, 0.004339723, 0.000017353, -0.002941487, -0.000008737, 0.007480045, 0.012327848, 0.011442987, 0.009338983, 0.007344950, 0.003523503, -0.000368228, -0.001824848, -0.000383116, 0.002671692, 0.005232039, 0.006742946, 0.008341183, 0.009935154, 0.008425721, 0.002929744, -0.001035350, -0.000718990, 0.000949012, 0.001552429, 0.001530954, 0.001509765, 0.001009385, 0.000027472, -0.000461520, 0.000648159, 0.003340443, 0.006586377, 0.008166202, 0.004833044, -0.002071203, -0.006243964, -0.003795167, 0.004914308, 0.016597034, 0.019033835, 0.004382685, -0.003620687, 0.013589462, 0.041800028, 0.102474025, 0.246920444, 0.410504893, 0.425733360, 0.277795790, 0.154747026, 0.136444767, 0.136464419, 0.133466960, 0.147154451, 0.124187784, 0.033317398, -0.049826193, -0.033699562, 0.064733638, 0.132186912, 0.104747322, 0.053844248, 0.027526734, -0.009972090, -0.014978109, 0.051058701, 0.087881563, 0.039847993, -0.006546458, -0.016144407, -0.021265355, -0.010423057, 0.035546104, 0.062741462, 0.031711373, -0.006139783, -0.008648815, 0.005750543, 0.014166414, 0.023461439, 0.035646027, 0.039320943, 0.035451886, 0.027327570, 0.011777181, -0.002951100, -0.005565396, 0.001792445, 0.008155263, 0.006168219, 0.000170137, -0.002563848, -0.001225003, 0.000733331, 0.001115665, 0.000254696, -0.001177452, -0.002237918, -0.001514096, 0.002801322, 0.010671025, 0.014508636, 0.009115718, 0.002294703, -0.000183889, -0.000197111, -0.000010924, -0.000027176, 0.000085107, 0.000277921, 0.000159522, 0.000002903, -0.000023921, 0.000027387, 0.000100190, 0.000146922, 0.000179364, 0.000310875, 0.000359004, 0.000315472, 0.000262799, 0.000074070, 0.000025351, 0.000177464, 0.000206115, 0.000031431, -0.000155584, -0.000181106, 0.000034900, 0.000543048, 0.000824489, 0.000198591, -0.000385502, -0.000018267, 0.000472393, 0.000099404, -0.000564544, -0.000070845, 0.001887778, 0.004332877, 0.008102904, 0.015015205, 0.024450790, 0.036519375, 0.048755124, 0.062471978, 0.079352220, 0.086659944, 0.067419232, 0.035069385, 0.014371658, 0.006095140, 0.004585260, 0.006191243, 0.007605729, 0.010532559, 0.014578402, 0.014656247, 0.010310829, 0.006308211, 0.004111730, 0.002246983, 0.000839142, 0.000384662, -0.000696038, -0.003047246, -0.002201958, 0.008490805, 0.023667553, 0.027829332, 0.025907870, 0.032778952, 0.041307893, 0.059003612, 0.086078859, 0.066942473, 0.010010792, -0.015106314, -0.003127366, 0.008355663, 0.006399233, 0.002089431, 0.000906178, 0.000241075, 0.000425869, 0.001704407, 0.001710855, 0.001117325, 0.000589379, -0.000345619, -0.000654247, -0.000081165, 0.000519632, 0.000717740, 0.000567508, 0.000561787, 0.001231713, 0.002042186, 0.002844072, 0.004363200, 0.004983083, 0.003058228, 0.001286994, 0.000674531, 0.000107180, 0.000447955, 0.001204128, 0.000705343, -0.000431379, -0.000577176, 0.000339075, 0.000834723, 0.000369075, -0.000059140, -0.000097418, 0.000156157, 0.000570415, 0.000710599, 0.000416455, 0.000163185, 0.000275970, 0.000669126, 0.000861395, 0.000652249, 0.000452990, 0.000603680, 0.000804455, 0.001529529, 0.002346173, 0.001898294, 0.000500577, -0.000347243, 0.000292135, 0.000750868, 0.000345158, 0.000405119, 0.000514883, 0.004460249, 0.028632347, 0.074007791, 0.083813753, 0.024782168, -0.027046591, -0.010654523, 0.027995543, 0.028596740, 0.008510718, 0.011596361, 0.034419726, 0.059102481, 0.106802105, 0.184994604, 0.198791955, 0.103711918, 0.022462338, 0.012816276, 0.012213608, -0.001442622, -0.001171116, 0.012345671, 0.015466507, 0.006457824, 0.000095838, -0.000500732, 0.000194064, 0.000676631, 0.001966308, 0.004835852, 0.007546982, 0.009439944, 0.011782696, 0.012818503, 0.014285274, 0.014177088, 0.003214045, -0.006198949, 0.004811671, 0.020272039, 0.021319086, 0.015845389, 0.011526085, 0.009906039, 0.012460743, 0.016854369, 0.020797533, 0.016407805, 0.004885037, -0.001669867, -0.001582639, -0.000023329, 0.000410653, 0.000168853, -0.000139887, -0.000575475, -0.000472204, 0.000495205, 0.001018577, 0.000256723, -0.000685882, -0.000473763, 0.000621343, 0.001015111, 0.000493515, 0.000172732, -0.000117849, -0.000457134, -0.000151329, 0.000562629, 0.000723747, 0.000904315, 0.001146358, 0.000773001, 0.000497007, 0.000257657, 0.000267208, 0.000433414, 0.000342793, 0.000239585, 0.000313434, 0.000655130, 0.001032163, 0.000688695, -0.000226702, -0.000193940, 0.000657114, 0.000535269, -0.000151910, 0.000002515, 0.000314688, 0.000307937, 0.000423973, 0.000436490, 0.000288340, 0.000189026, 0.000117190, 0.000099691, 0.000083758, 0.000071235, 0.000035089, -0.000068969, -0.000053724, 0.000395021, 0.001018775, 0.000953505, 0.000348720, 0.000093271, 0.000151077, 0.000196911, 0.000061497, 0.000100966, 0.000087845, -0.000036912, -0.000006652, -0.000107722, -0.000129920, 0.000580264, 0.001545491, 0.002021085, 0.002468831, 0.002799844, 0.002478465, 0.001444040, 0.000518628, 0.000261064, 0.000512346, 0.000844198, 0.001012988, 0.000972340, 0.000903854, 0.000531220, 0.000201782, 0.000083430, -0.000017852, -0.000042821, 0.000199184, 0.000528571, 0.000686235, 0.000537491, 0.000278123, 0.000197209, 0.000285374, 0.000386472, 0.000304371, 0.000246689, 0.000261339, 0.000261438, 0.000309875, 0.000309006, 0.000245266, 0.000200490, 0.000042449, 0.000094158, 0.000321590, 0.000124234, -0.000254952, -0.000283452, 0.000227840, 0.001350076, 0.002707449, 0.004270483, 0.006731236, 0.009601052, 0.009497501, 0.004609152, 0.000242808, -0.000406419, 0.000124431, 0.000234421, 0.000243428, 0.000222139, 0.000138805, 0.000026843, -0.000015726, 0.000008158, 0.000043516, 0.000214943, 0.000326486, 0.000266750, 0.000268869, 0.000152248, 0.000318557, 0.000789028, 0.000716231, 0.000334112, 0.000144125, 0.000191061, 0.000308218, 0.000279203, 0.000258891, 0.000142693, -0.000084134, -0.000098939, 0.000185972, 0.000529285, 0.000637237, 0.000527577, 0.000504130, 0.000504727, 0.000602274, 0.000722389, 0.000305548, -0.000139568, -0.000079318, 0.000158865, 0.000217975, 0.000069964, -0.000039720, 0.000054645, 0.000153102, 0.000201655, 0.000320988, 0.000448048, 0.000610063, 0.000343320, 0.000028200, -0.000010631, 0.000015416, 0.000029472, 0.000068648, 0.000099295, 0.000128192, 0.000172767, 0.000216748, 0.000241264, 0.000245645, 0.000243121, 0.000158400, 0.000001580, 0.000018252, 0.000270540, 0.000458482, 0.000474413, 0.000491000, 0.000359040, -0.000024387, -0.000087868, 0.000085888, 0.000073068, 0.000044600, 0.000017278, -0.000034628, 0.000027417, 0.000181908, 0.000162194, 0.000176129, 0.000256272, 0.000289933, 0.000302690, 0.000227188, 0.000194835, 0.000072294, -0.000045645, -0.000061055, 0.000114038, 0.000705974, 0.001214233, 0.000610447, -0.000078026, -0.000036279, 0.000227050, 0.000258485, 0.000225009, 0.000207499, 0.000170527, 0.000064563, -0.000054416, -0.000076757, 0.000017227, 0.000172774, 0.000271719, 0.000395635, 0.000543987, 0.000586575, 0.000654533, 0.000557424, 0.000305179, 0.000087438, 0.000008644, 0.000112128, 0.000302756, 0.000225298, -0.000098517, 0.000186869, 0.000641101, 0.000656189, 0.000621659, 0.000440981, 0.000304651, 0.000174605, 0.000151056, 0.000191560, 0.000052275, -0.000046520, -0.000003626, 0.000023371, 0.000006003, -0.000007317, -0.000001249, 0.000035239, 0.000101114, 0.000134062, 0.000047153, -0.000000064, 0.000095508, 0.000017698, -0.000073164, 0.000036587, 0.000093868, 0.000087731, 0.000083298, 0.000088652, 0.000157470, 0.000210355, 0.000291291, 0.000232575, 0.000029284, -0.000006237, 0.000001623, 0.000003414, 0.000002187, -0.000011144, 0.000045408, 0.000195090, 0.000248061, 0.000217471, 0.000190555, 0.000164163, 0.000127168, 0.000095303, 0.000040889, -0.000030081, -0.000000093, 0.000057900, 0.000094194, 0.000152799, 0.000150798, 0.000079181, 0.000039895, 0.000011749, -0.000008662, 0.000112677, 0.000322253, 0.000456403, 0.000414943, 0.000209690, 0.000095364, 0.000030718, 0.000003724, 0.000006745, 0.000018719, 0.000074493, 0.000079821, 0.000090221, 0.000038212, 0.000004287, 0.000391714, 0.000789405, 0.000292946, -0.000437491, -0.000241914, 0.000416501, 0.000699417, 0.000473116, 0.000163993, 0.000049923, 0.000017087, 0.000000072, -0.000001313, 0.000036528, 0.000083618, 0.000075558, 0.000074257, 0.000071793, 0.000087887, 0.000111804, 0.000148513, 0.000138542, 0.000096239, 0.000063206, 0.000003071, -0.000006389, 0.000016472, 0.000007741, -0.000029226, 0.000048128, 0.000132957, 0.000156884, 0.000210637, 0.000451625, 0.000750825, 0.000709580, 0.000305098, 0.000044253, 0.000031124, 0.000081482, 0.000092476, 0.000014966, -0.000025276, 0.000156141, 0.000316229, 0.000105608, -0.000163873, -0.000100511, 0.000155389, 0.000418458, 0.000463802, 0.000150488, -0.000006146, 0.000006590, 0.000012617, -0.000014810, 0.000044537, 0.000093039, 0.000049929, 0.000043824, 0.000036127, 0.000035285, 0.000010700, 0.000249124, 0.000860442, 0.000985966, 0.000712909, 0.000513676, 0.000493052, 0.000512126, 0.000461549, 0.000055299, -0.000215350, 0.000062016, 0.000327355, 0.000210959, 0.000362840, 0.000598783, 0.000443723, 0.000297623, 0.000220401, 0.000120464, 0.000059980, 0.000035165, 0.000012280, 0.000004002, -0.000028405, 0.000128771, 0.001096039, 0.001799357, 0.000649180, -0.000268203, 0.000272247, 0.000707107, 0.000443219, 0.000040722, -0.000112086, -0.000019794, 0.000076439, 0.000048836, -0.000008849, -0.000009003, 0.000035311, 0.000077253, 0.000102340, 0.000132913, 0.000118066, 0.000039412, 0.000011189, -0.000006452, -0.000007133, 0.000064215, 0.000199578, 0.000236160, 0.000083405, -0.000014555, 0.000015410, 0.000067728, 0.000140751, 0.000338502, 0.000594487, 0.000393907, -0.000177352, -0.000209279, 0.000123981, 0.000094510, -0.000160934, -0.000114162, 0.000270404, 0.000365071, -0.000015251, -0.000212460, -0.000031838, 0.000277165, 0.000249255, -0.000027750, 0.000019455, 0.000105534, 0.000268799, 0.000423620, 0.000320761, 0.000390540, 0.000380855, 0.000102049, -0.000024480, 0.000005500, 0.000024724, 0.000059507, 0.000133020, 0.000284892, 0.000391253, 0.000212069, 0.000002480, -0.000052148, 0.000035247, 0.000141085, 0.000117981, 0.000030169, 0.000024402, 0.000039595, 0.000053431, 0.000093434, 0.000039231, -0.000025371, 0.000066900, 0.000113591, 0.000137031, 0.000140027, 0.000117507, 0.000095694, 0.000086291, 0.000079027, 0.000094465, 0.000174891, 0.000249271, 0.000309674, 0.000355981, 0.000176009, -0.000004371, -0.000030982, -0.000038483, 0.000022622, 0.000300723, 0.000411828, 0.000231120, 0.000169446, 0.000074015, 0.000153171, 0.000477992, 0.000511509, 0.000132949, -0.000138681, -0.000070325, 0.000057882, 0.000050040, 0.000061657, 0.000093490, 0.000009872, -0.000026394, 0.000128796, 0.000344640, 0.000493233, 0.000533511, 0.000484150, 0.000444427, 0.000375839, 0.000349052, 0.000316901, 0.000219648, 0.000014115, -0.000104655, 0.000004821, 0.000159020, 0.000195967, 0.000172815, 0.000168110, 0.000186147, 0.000186698, 0.000197659, 0.000191681, 0.000182505, 0.000162721, 0.000151633, 0.000056601, -0.000047899, 0.000009740, 0.000066219, 0.000111478, 0.000175526, 0.000251304, 0.000179085, -0.000064724, -0.000085898, 0.000024632, 0.000057768, 0.000102091, 0.000110434, -0.000002975, -0.000081991, -0.000003390, 0.000095541, 0.000135747, 0.000168495, 0.000203459, 0.000228229, 0.000136041, 0.000017826, -0.000002280, 0.000006971, -0.000002989, -0.000000195, 0.000005703, 0.000011611, 0.000016218, 0.000024632, 0.000036232, 0.000050358, 0.000055154, 0.000051368, 0.000102283, 0.000179353, 0.000385580, 0.000500066, 0.000418774, 0.000330365, 0.000227942, 0.000153081, 0.000122977, 0.000061019, -0.000017749, 0.000006214, 0.000072308, 0.000073569, 0.000030398, -0.000008995, 0.000007794, 0.000053056, 0.000040655, -0.000032841, -0.000046564, 0.000090737, 0.000224782, 0.000193361, 0.000145590, 0.000102313, 0.000047366, 0.000036206, 0.000125359, 0.000204295, 0.000273288, 0.000338932, 0.000204277, 0.000079231, 0.000047950, 0.000055131, 0.000027995, 0.000010853, 0.000045821, 0.000041445, 0.000039922, 0.000026519, 0.000120936, 0.000489283, 0.000447782, 0.000009365, -0.000135512, 0.000034266, 0.000199755, 0.000277224, 0.000241760, 0.000060546, -0.000030887, 0.000183796, 0.000543415, 0.000561539, 0.000447834, 0.000407038, 0.000376460, 0.000563276, 0.000390022, 0.000008277, 0.000157934, 0.001057359, 0.001491511, 0.000026853, -0.001080509, 0.000269666, 0.001681411, 0.001217184, 0.000187586, -0.000312941, -0.000339446, 0.000033073, 0.000631437, 0.000780321, 0.000308406, -0.000298667, -0.000618706, -0.000015015, 0.001823142, 0.003852851, 0.005618132, 0.007910763, 0.009594051, 0.010710550, 0.011881471, 0.010595113, 0.005860286, 0.003774610, 0.008914532, 0.011356432, 0.003496558, -0.005037512, -0.005134765, 0.000627775, 0.003770765, 0.000304910, -0.003092248, 0.001599747, 0.011473163, 0.019330806, 0.026512604, 0.036361613, 0.049214095, 0.058848980, 0.046195256, 0.014453728, -0.008502760, -0.011329632, -0.004688343, -0.000915773, 0.003587500, 0.019506820, 0.029196597, 0.014626793, -0.003360453, -0.005583563, 0.002189401, 0.008254261, 0.010573757, 0.013048419, 0.013942861, 0.009310129, 0.000612756, -0.005067824, -0.002270824, 0.002801739, 0.002796664, 0.001304597, 0.001727182, 0.001026888, -0.000868411, -0.000075901, 0.004342489, 0.008559056, 0.010447733, 0.012520939, 0.012696340, 0.005932661, -0.000917717, 0.001133657, 0.006331689, 0.008200813, 0.008459097, 0.008679980, 0.009163226, 0.009438831, 0.009592854, 0.009886457, 0.009994592, 0.010412285, 0.013286961, 0.016327527, 0.019517358, 0.021525213, 0.016072176, 0.007037362, 0.003721924, 0.004654072, 0.004269395, 0.002303804, 0.000915647, 0.000520588, 0.000009133, 0.000468434, 0.008559410, 0.027789382, 0.049270709, 0.058135369, 0.049492039, 0.040771653, 0.032563517, 0.023751970, 0.020744519, 0.014184830, 0.004859845, 0.000061008, -0.000457822, 0.000201161, 0.000517372, 0.000655182, 0.000868817, 0.000595138, -0.001473901, -0.002020920, 0.008558451, 0.030141080, 0.045671398, 0.042550395, 0.030939374, 0.022494496, 0.011032980, -0.003140956, -0.006519962, 0.003604367, 0.015862806, 0.025673042, 0.036650890, 0.052474098, 0.067839672, 0.053738803, 0.005133476, -0.027390185, -0.005752061, 0.035134420, 0.048794542, 0.049797533, 0.053707276, 0.054431427, 0.056605198, 0.052936304, 0.036495732, 0.015746095, 0.005443147, 0.004468432, 0.001617503, -0.002620447, -0.002547163, 0.001295712, 0.004677555, 0.006432569, 0.007882342, 0.009734287, 0.009825275, 0.005265769, -0.000705879, 0.002785698, 0.021558697, 0.041311340, 0.038256084, 0.017628843, 0.003747287, 0.000766693, -0.000604122, 0.000063187, 0.004250817, 0.007153081, 0.005994387, 0.003336087, 0.002840229, 0.006450601, 0.010807080, 0.007492689, 0.009660232, 0.048598841, 0.110909695, 0.156247266, 0.198087619, 0.243363048, 0.221653555, 0.138433310, 0.077048978, 0.035513020, 0.000980515, -0.006313933, 0.014465344, 0.041779731, 0.049521935, 0.039792206, 0.029482202, 0.022517691, 0.009059116, -0.004361987, 0.006642335, 0.040818437, 0.066494510, 0.069851207, 0.073722380, 0.080227927, 0.095648371, 0.128535342, 0.118477219, 0.066535477, 0.033569021, 0.017125132, 0.005765136, 0.005689596, 0.004791278, -0.008421742, -0.015506374, 0.020003315, 0.091543820, 0.117872337, 0.059534933, 0.000576508, 0.024979526, 0.095924956, 0.154405086, 0.229365690, 0.335327468, 0.391237133, 0.319232578, 0.169488428, 0.079917019, 0.067866861, 0.057408588, 0.047375787, 0.049394546, 0.036345983, 0.011848323, 0.005182264, 0.029193908, 0.059240491, 0.051991154, 0.033194490, 0.045287991, 0.046378681, 0.009477002, -0.005809510, 0.030042387, 0.059115242, 0.045410485, 0.023230495, 0.015547313, 0.011721745, 0.008343334, 0.010078652, 0.032737062, 0.087852725, 0.126346225, 0.099351935, 0.033661477, -0.026179565, -0.047369361, -0.007427601, 0.075416320, 0.134394388, 0.139715566, 0.137399916, 0.120427037, 0.070985529, 0.031591312, 0.012445317, 0.003969355, 0.005725664, 0.014318776, 0.026145521, 0.033803821, 0.031930905, 0.026048617, 0.021449139, 0.013085338, 0.002510910, 0.000141867, 0.002307879, 0.001826885, 0.000688941, 0.001958303, 0.003275862, 0.002762352, 0.003752489, 0.010579112, 0.027024408, 0.037826384, 0.027985633, 0.013887710, 0.007138739, 0.003567572, 0.002655172, 0.002675056, 0.001758039, 0.001649988, 0.004315834, 0.009820132, 0.013884551, 0.015453788, 0.015623295, 0.013718589, 0.013605883, 0.016311182, 0.017486421, 0.021144507, 0.025615966, 0.028124611, 0.032125147, 0.036588102, 0.037364703, 0.029526426, 0.014379960, 0.001142169, -0.000216349, 0.002830381, 0.002077996, 0.000623152, 0.000629978, 0.001151032, 0.001653004, 0.003102066, 0.004413134, 0.002243687, -0.002450057, -0.003096320, 0.003467561, 0.009110071, 0.011071609, 0.017776990, 0.024061634, 0.029222454, 0.035511504, 0.029401602, 0.013628103, 0.004744036, 0.002788065, 0.001064115, 0.005498949, 0.015135559, 0.019993099, 0.022137345, 0.025310299, 0.031363166, 0.047519239, 0.063921017, 0.067795351, 0.073027491, 0.083757670, 0.073990224, 0.046166681, 0.029261366, 0.013751772, -0.004384685, -0.004525234, 0.012004436, 0.019583156, 0.005589110, -0.011181526, -0.004306011, 0.021879591, 0.035744465, 0.028089692, 0.018679094, 0.016453580, 0.015393771, 0.015801775, 0.019577749, 0.021281369, 0.019427503, 0.016678133, 0.014410101, 0.009016414, 0.002096199, 0.001071020, 0.004732752, 0.009880764, 0.015281794, 0.015943725, 0.012138880, 0.010763342, 0.007440973, 0.008366218, 0.057421403, 0.150343565, 0.192865990, 0.142006394, 0.070704273, 0.036408370, 0.019698706, 0.010305911, 0.009877396, 0.005258720, -0.003046502, -0.004505520, -0.001197583, 0.000763109, 0.004643589, 0.013620409, 0.018982818, 0.017768252, 0.017404881, 0.016024511, 0.013752740, 0.011944567, 0.007714654, 0.002942519, 0.001067804, 0.000538355, 0.000271111, -0.000007172, -0.000266969, 0.000514158, 0.001945839, 0.002425216, 0.001992983, 0.001755281, 0.001858861, 0.001885518, 0.002456125, 0.005513345, 0.010190278, 0.009053243, 0.001921390, 0.001605654, 0.007017376, 0.007592899, 0.006576976, 0.007825953, 0.008899596, 0.011659073, 0.015151826, 0.010864464, -0.002039566, -0.008929454, -0.001262289, 0.009107260, 0.008468426, 0.005939650, 0.010872256, 0.011168720, 0.005619659, 0.002483669, 0.000709354, -0.000902198, -0.000392264, 0.002257472, 0.003690374, 0.003106083, 0.002379609, -0.000567136, -0.003772841, -0.000177163, 0.008273150, 0.014406350, 0.020176218, 0.028046558, 0.041379224, 0.053546518, 0.041193262, 0.018584239, 0.008456798, -0.000079299, -0.003919150, 0.011023699, 0.028234970, 0.028867537, 0.020902518, 0.015170583, 0.007697779, -0.002375521, -0.003802785, 0.006256935, 0.014100862, 0.009297415, -0.000440106, -0.002997014, 0.002178611, 0.006810627, 0.005976764, 0.002144951, 0.000578082, 0.002875398, 0.006081801, 0.010345358, 0.021559236, 0.041056015, 0.058980914, 0.057749302, 0.034499620, 0.016588925, 0.016701551, 0.018289757, 0.018013288, 0.018953996, 0.017409681, 0.012625627, 0.010281094, 0.012320721, 0.013351695, 0.015375250, 0.015817824, 0.008880121, 0.002058008, 0.002915770, 0.006936984, 0.009823133, 0.017124366, 0.023213730, 0.013547528, -0.000042220, 0.014465366, 0.067148500, 0.105451843, 0.074683598, 0.015927862, -0.007398422, -0.001311072, 0.005043106, 0.002086517, -0.001684663, 0.001133402, 0.004874559, 0.006683719, 0.009148779, 0.009500062, 0.005609041, 0.001003550, -0.001421767, -0.001940351, -0.000009388, 0.003617293, 0.004268318, -0.000139564, -0.004054089, -0.000232764, 0.009739959, 0.014838878, 0.012676564, 0.012514046, 0.016685398, 0.018752010, 0.020811207, 0.023676380, 0.018373565, 0.008195511, 0.002981005, 0.000782619, -0.000471388, 0.000752265, 0.002274994, 0.004409512, 0.007582647, 0.008533877, 0.007506884, 0.005311250, 0.002148877, 0.000300729, -0.000148986, -0.000489723, -0.000558209, 0.000451720, 0.002925675, 0.005846481, 0.006743286, 0.005623268, 0.004769131, 0.004260539, 0.003718085, 0.002992863, 0.001632285, 0.000801030, 0.001988063, 0.003255139, 0.002451751, 0.000564695, -0.000082809, 0.001583133, 0.004514512, 0.005747626, 0.001954220, -0.003591642, -0.000893172, 0.010899403, 0.016237551, 0.008107139, 0.001630454, 0.002934546, 0.003629821, 0.002682630, 0.001954814, -0.000089260, -0.001064052, 0.004393410, 0.010969172, 0.009901804, 0.005703524, 0.003252289, 0.001677601, 0.000854973, 0.000381408, 0.000358782, 0.000656568, 0.000950933, 0.001026387, 0.001454821, 0.002157076, 0.003576169, 0.005066787, 0.005246942, 0.005557028, 0.005272882, 0.003561064, 0.000964073, -0.000803043, -0.000874523, -0.000179999, 0.000261782, 0.000147384, -0.000631527, -0.001075431, 0.000068280, 0.000831682, -0.000786231, -0.001435681, 0.002388683, 0.008885690, 0.013912010, 0.013375696, 0.003812680, -0.009806327, -0.011401396, 0.005825609, 0.024873166, 0.027594142, 0.020529322, 0.015874612, 0.013070394, 0.011618518, 0.014445386, 