0.006687, 0.007465, 0.009616, 0.011431, 0.012475, 0.013160, 0.014097, 0.016151, 0.019965, 0.025218, 0.031200, 0.037015, 0.041381, 0.043856, 0.045464, 0.047424, 0.050049, 0.052230, 0.053025, 0.053025, 0.054016, 0.056731, 0.059346, 0.060725, 0.061598, 0.062663, 0.063671, 0.064007, 0.064010, 0.064037, 0.064038, 0.064093, 0.064217, 0.064344, 0.064450, 0.064529, 0.064642, 0.065041, 0.066067, 0.067233, 0.067712, 0.067743, 0.067750, 0.067754, 0.067754, 0.067761, 0.067767, 0.067806, 0.068688, 0.072655, 0.080539, 0.089400, 0.096414, 0.101290, 0.104150, 0.104834, 0.104964, 0.106917, 0.110263, 0.112992, 0.114360, 0.114745, 0.114758, 0.114775, 0.114667, 0.116945, 0.126013, 0.139398, 0.148038, 0.150317, 0.150577, 0.150746, 0.151059, 0.150847, 0.150069, 0.149284, 0.148528, 0.147931, 0.147647, 0.147431, 0.146944, 0.146132, 0.145451, 0.145427, 0.145899, 0.145800, 0.144767, 0.144122, 0.144425, 0.144778, 0.144624, 0.144254, 0.144128, 0.144171, 0.144252, 0.144315, 0.144291, 0.144308, 0.144412, 0.144437, 0.144424, 0.144809, 0.145341, 0.145115, 0.144585, 0.144507, 0.144722, 0.145258, 0.146628, 0.148666, 0.150407, 0.151583, 0.152502, 0.152904, 0.151475, 0.147455, 0.142492, 0.138923, 0.137350, 0.137547, 0.139042, 0.139959, 0.138626, 0.136019, 0.134059, 0.133273, 0.133220, 0.133402, 0.133633, 0.134103, 0.133069, 0.125425, 0.110600, 0.098546, 0.095217, 0.095936, 0.097584, 0.098595, 0.098952, 0.098954, 0.098797, 0.099049, 0.098985, 0.098341, 0.098971, 0.100327, 0.100541, 0.100490, 0.100251, 0.099600, 0.099698, 0.100036, 0.099459, 0.098191, 0.097124, 0.096678, 0.096677, 0.097436, 0.098538, 0.098976, 0.098937, 0.098957, 0.098932, 0.098815, 0.098914, 0.099244, 0.099118, 0.098596, 0.098666, 0.098953, 0.098928, 0.098663, 0.097868, 0.095981, 0.093259, 0.090868, 0.089210, 0.087957, 0.087047, 0.086707, 0.086792, 0.086420, 0.084686, 0.081554, 0.077598, 0.073936, 0.072032, 0.071928, 0.072094, 0.071661, 0.070959, 0.070474, 0.070208, 0.069835, 0.068989, 0.067837, 0.067795, 0.069635, 0.071992, 0.073159, 0.072279, 0.069610, 0.067091, 0.066709, 0.067713, 0.067892, 0.066661, 0.065890, 0.066157, 0.064594, 0.062769, 0.064111, 0.065934, 0.066873, 0.067122, 0.066457, 0.067518, 0.071831, 0.078054, 0.084509, 0.089234, 0.090975, 0.090258, 0.089103, 0.088757, 0.088849, 0.088843, 0.088777, 0.088810, 0.088926, 0.088943, 0.088715, 0.088313, 0.087897, 0.087566, 0.087371, 0.087371, 0.087496, 0.087405, 0.086954, 0.086496, 0.086174, 0.085832, 0.085379, 0.085018, 0.084911, 0.084906, 0.084902, 0.084860, 0.084821, 0.084892, 0.085002, 0.085017, 0.085022, 0.085127, 0.085275, 0.085362, 0.085423, 0.085505, 0.085455, 0.084929, 0.083556, 0.081485, 0.079405, 0.078041, 0.077803, 0.078262, 0.078415, 0.077821, 0.077043, 0.076676, 0.076494, 0.076246, 0.076132, 0.076585, 0.077165, 0.076861, 0.075738, 0.074735, 0.074707, 0.075679, 0.075763, 0.072501, 0.065792, 0.057367, 0.049883, 0.046512, 0.046321, 0.046151, 0.045604, 0.045309, 0.045297, 0.045315, 0.045124, 0.044600, 0.043862, 0.043266, 0.043057, 0.043145, 0.043276, 0.043318, 0.043228, 0.043055, 0.042883, 0.042790, 0.042765, 0.042749, 0.042704, 0.042629, 0.042569, 0.042538, 0.042522, 0.042509, 0.042487, 0.042430, 0.042270, 0.041986, 0.041633, 0.041213, 0.040924, 0.041000, 0.041216, 0.041203, 0.040974, 0.040782, 0.040720, 0.040710, 0.040702, 0.040707, 0.040542, 0.039726, 0.038625, 0.038177, 0.038186, 0.037950, 0.037441, 0.037070, 0.036935, 0.036843, 0.036008, 0.033693, 0.031114, 0.030900, 0.032385, 0.032482, 0.030019, 0.026374, 0.024708, 0.025283, 0.025722, 0.025910, 0.026142, 0.026290, 0.026353, 0.026446, 0.026598, 0.026850, 0.027163, 0.027237, 0.027009, 0.026865, 0.026763, 0.026507, 0.026291, 0.026085, 0.026327, 0.028235, 0.031012, 0.032771, 0.033515, 0.034125, 0.035166, 0.036183, 0.036418, 0.036436, 0.036526, 0.036525, 0.036546, 0.036546, 0.036622, 0.036792, 0.036852, 0.036849, 0.036912, 0.036833, 0.036408, 0.035879, 0.035629, 0.035913, 0.036503, 0.036850, 0.036880, 0.036909, 0.037098, 0.037424, 0.037759, 0.037957, 0.038054, 0.038191, 0.038671, 0.039304, 0.039488, 0.039458, 0.039317, 0.039413, 0.039866, 0.039921, 0.039095, 0.037851, 0.037302, 0.037303, 0.037080, 0.036633, 0.036137, 0.035686, 0.035369, 0.035199, 0.035117, 0.035058, 0.034976, 0.034886, 0.034904, 0.035151, 0.035650, 0.036259, 0.036649, 0.036804, 0.036858, 0.036782, 0.036970, 0.037350, 0.036525, 0.034406, 0.032765, 0.032018, 0.031441, 0.031707, 0.035127, 0.040252, 0.043429, 0.044453, 0.044567, 0.044661, 0.045530, 0.047428, 0.050516, 0.054680, 0.058269, 0.059654, 0.059666, 0.059893, 0.060506, 0.060973, 0.060924, 0.060556, 0.060438, 0.060656, 0.060715, 0.060655, 0.060954, 0.061398, 0.061728, 0.062015, 0.062167, 0.061893, 0.061665, 0.062400, 0.063465, 0.064075, 0.064178, 0.063950, 0.063813, 0.063804, 0.063805, 0.063872, 0.064137, 0.064501, 0.064836, 0.065215, 0.065629, 0.065840, 0.065782, 0.065874, 0.066280, 0.066574, 0.066608, 0.066483, 0.066182, 0.065801, 0.065478, 0.065284, 0.065225, 0.065250, 0.065314, 0.065297, 0.065076, 0.064866, 0.064847, 0.064922, 0.065047, 0.065127, 0.064453, 0.062141, 0.059058, 0.056901, 0.056050, 0.056284, 0.056718, 0.056220, 0.054575, 0.051755, 0.048049, 0.045627, 0.046524, 0.048456, 0.048824, 0.048086, 0.047568, 0.047880, 0.048823, 0.049855, 0.050789, 0.051943, 0.053136, 0.053709, 0.053761, 0.053655, 0.053443, 0.053245, 0.053253, 0.053049, 0.052499, 0.054156, 0.059781, 0.065393, 0.067378, 0.067359, 0.068330, 0.070465, 0.072318, 0.073030, 0.072900, 0.072591, 0.072258, 0.071875, 0.071705, 0.071744, 0.071617, 0.071587, 0.072178, 0.072921, 0.073184, 0.073195, 0.073752, 0.074675, 0.074944, 0.074902, 0.074885, 0.074896, 0.075272, 0.075753, 0.076343, 0.077430, 0.078458, 0.078397, 0.079580, 0.083596, 0.087148, 0.088837, 0.090069, 0.091970, 0.094293, 0.095757, 0.095984, 0.096067, 0.096670, 0.097087, 0.096705, 0.095699, 0.094770, 0.094435, 0.094459, 0.094392, 0.094190, 0.093846, 0.093285, 0.092623, 0.091954, 0.091250, 0.090576, 0.090097, 0.089861, 0.089773, 0.089740, 0.089729, 0.089736, 0.089474, 0.087735, 0.083589, 0.079163, 0.077410, 0.077585, 0.077352, 0.075744, 0.073976, 0.074493, 0.076996, 0.079282, 0.080606, 0.081225, 0.081410, 0.081523, 0.081840, 0.082212, 0.082083, 0.081519, 0.081290, 0.081315, 0.080808, 0.080147, 0.080271, 0.080312, 0.080918, 0.083788, 0.086549, 0.087056, 0.086435, 0.085373, 0.084353, 0.084499, 0.083467, 0.079452, 0.075508, 0.073438, 0.072191, 0.070896, 0.069730, 0.069108, 0.068756, 0.069881, 0.073341, 0.076489, 0.077997, 0.079017, 0.080486, 0.082025, 0.082824, 0.083070, 0.083089, 0.083140, 0.083573, 0.084212, 0.084606, 0.084670, 0.084681, 0.084825, 0.085106, 0.085617, 0.086655, 0.088392, 0.090169, 0.091129, 0.091391, 0.091437, 0.091502, 0.091651, 0.091522, 0.091053, 0.091114, 0.091662, 0.091095, 0.089111, 0.087094, 0.085891, 0.085305, 0.085124, 0.085197, 0.085103, 0.084472, 0.083886, 0.084038, 0.084516, 0.084856, 0.085000, 0.084847, 0.084493, 0.084508, 0.083985, 0.081132, 0.077768, 0.076616, 0.076620, 0.076903, 0.078481, 0.082531, 0.088699, 0.094770, 0.099534, 0.103093, 0.105157, 0.105157, 0.103696, 0.103144, 0.105652, 0.110329, 0.116137, 0.124293, 0.133598, 0.139828, 0.140987, 0.140095, 0.140336, 0.141095, 0.141277, 0.141152, 0.140913, 0.140534, 0.140319, 0.140326, 0.140324, 0.140265, 0.140343, 0.140729, 0.140642, 0.139553, 0.139758, 0.141994, 0.143420, 0.143413, 0.143822, 0.144429, 0.144431, 0.145001, 0.146360, 0.147509, 0.148247, 0.148880, 0.149288, 0.149322, 0.149354, 0.149475, 0.149495, 0.149423, 0.149396, 0.149444, 0.149315, 0.149110, 0.149383, 0.149918, 0.150379, 0.151158, 0.153063, 0.155665, 0.157146, 0.157452, 0.157494, 0.157522, 0.157384, 0.156635, 0.154547, 0.150997, 0.147448, 0.144656, 0.142237, 0.140520, 0.139976, 0.139982, 0.139506, 0.137555, 0.133379, 0.126808, 0.117423, 0.105968, 0.096874, 0.094027, 0.094060, 0.092961, 0.091625, 0.091293, 0.091294, 0.091270, 0.091541, 0.092131, 0.093047, 0.094230, 0.095515, 0.096591, 0.096877, 0.096977, 0.097507, 0.095834, 0.091624, 0.089093, 0.089027, 0.088254, 0.087106, 0.087199, 0.086204, 0.084319, 0.086351, 0.090881, 0.092815, 0.092848, 0.092913, 0.092969, 0.092758, 0.092680, 0.094311, 0.098836, 0.104515, 0.108892, 0.111392, 0.112389, 0.112748, 0.112798, 0.112034, 0.109585, 0.106172, 0.104406, 0.104045, 0.104100, 0.105127, 0.107497, 0.111469, 0.117917, 0.126668, 0.133744, 0.136456, 0.136774, 0.136774, 0.136889, 0.137199, 0.137320, 0.137430, 0.138476, 0.139600, 0.139934, 0.139947, 0.140143, 0.141061, 0.143469, 0.146594, 0.148408, 0.148744, 0.148748, 0.149049, 0.150103, 0.152293, 0.154427, 0.154679, 0.153863, 0.153415, 0.152733, 0.152316, 0.152480, 0.152314, 0.153076, 0.154768, 0.155474, 0.155462, 0.156102, 0.158008, 0.161333, 0.164517, 0.164359, 0.161711, 0.160234, 0.160493, 0.161974, 0.163979, 0.165125, 0.165060, 0.165071, 0.165211, 0.163631, 0.160983, 0.159330, 0.158833, 0.158737, 0.158636, 0.158497, 0.158350, 0.158098, 0.157789, 0.157848, 0.158301, 0.158489, 0.157721, 0.155320, 0.150392, 0.143434, 0.138431, 0.138031, 0.139399, 0.140290, 0.141012, 0.142552, 0.145669, 0.149288, 0.151296, 0.151341, 0.150408, 0.149933, 0.150409, 0.150488, 0.149580, 0.150527, 0.157456, 0.166614, 0.171571, 0.172392, 0.171373, 0.169095, 0.166618, 0.165718, 0.165715, 0.165294, 0.165264, 0.165422, 0.165122, 0.165161, 0.165384, 0.166447, 0.169850, 0.173620, 0.174330, 0.172587, 0.171264, 0.170481, 0.170366, 0.171989, 0.175812, 0.180092, 0.181922, 0.181819, 0.182125, 0.183116, 0.182496, 0.179957, 0.178147, 0.177933, 0.177940, 0.177362, 0.176971, 0.178168, 0.181446, 0.186757, 0.194030, 0.201939, 0.207665, 0.209505, 0.208954, 0.208625, 0.209459, 0.211065, 0.212505, 0.212729, 0.211989, 0.211460, 0.211210, 0.210670, 0.209445, 0.207210, 0.204641, 0.202821, 0.201905, 0.201674, 0.201864, 0.202115, 0.202048, 0.201176, 0.198242, 0.191581, 0.183968, 0.179910, 0.179057, 0.179057, 0.179055, 0.179041, 0.179040, 0.179041, 0.179038, 0.178956, 0.178692, 0.178546, 0.178508, 0.177607, 0.175137, 0.171203, 0.167401, 0.166137, 0.166302, 0.164872, 0.162749, 0.161460, 0.159866, 0.155923, 0.150366, 0.146525, 0.145193, 0.145375, 0.146306, 0.147536, 0.148327, 0.148643, 0.148695, 0.148554, 0.148663, 0.148476, 0.146625, 0.142570, 0.136172, 0.126533, 0.113804, 0.102812, 0.098752, 0.099017, 0.098700, 0.096892, 0.094988, 0.093158, 0.090563, 0.088303, 0.088276, 0.089956, 0.090953, 0.090906, 0.091740, 0.092448, 0.091376, 0.090985, 0.092516, 0.094133, 0.095766, 0.098477, 0.099801, 0.099705, 0.099945, 0.099219, 0.098200, 0.097964, 0.098284, 0.099136, 0.100445, 0.101530, 0.101928, 0.101921, 0.102116, 0.102927, 0.104233, 0.105779, 0.107446, 0.108984, 0.110118, 0.110861, 0.111354, 0.111566, 0.111336, 0.110683, 0.109945, 0.109887, 0.110448, 0.110437, 0.111293, 0.113721, 0.114385, 0.112476, 0.110459, 0.109407, 0.108963, 0.108857, 0.108861, 0.108819, 0.109170, 0.110404, 0.111742, 0.111572, 0.110499, 0.110662, 0.111360, 0.111093, 0.110603, 0.110312, 0.109792, 0.108629, 0.107170, 0.106666, 0.106623, 0.105296, 0.103170, 0.102217, 0.102225, 0.101488, 0.101211, 0.102413, 0.102354, 0.100964, 0.099869, 0.097585, 0.093951, 0.092500, 0.092780, 0.092166, 0.091876, 0.092819, 0.094382, 0.095712, 0.096444, 0.097215, 0.099130, 0.101162, 0.101580, 0.101501, 0.101152, 0.099907, 0.098302, 0.097298, 0.099985, 0.107267, 0.114896, 0.119140, 0.120286, 0.120287, 0.120070, 0.119563, 0.118626, 0.118353, 0.119749, 0.120051, 0.117330, 0.114462, 0.113560, 0.113729, 0.113842, 0.113870, 0.114508, 0.115450, 0.115775, 0.115291, 0.114148, 0.112824, 0.112302, 0.112326, 0.111818, 0.111167, 0.111514, 0.112893, 0.114175, 0.114457, 0.114251, 0.115063, 0.116653, 0.117511, 0.117667, 0.117676, 0.117682, 0.117677, 0.117683, 0.117491, 0.117090, 0.117412, 0.117985, 0.117464, 0.116516, 0.116032, 0.115893, 0.115993, 0.116708, 0.118173, 0.119414, 0.119462, 0.118507, 0.117197, 0.115425, 0.112822, 0.110646, 0.110348, 0.110727, 0.111538, 0.113224, 0.114983, 0.115858, 0.113704, 0.108090, 0.102479, 0.099450, 0.098045, 0.097693, 0.099286, 0.104815, 0.114618, 0.122856, 0.125006, 0.124247, 0.123666, 0.123671, 0.124050, 0.124074, 0.123961, 0.123988, 0.123463, 0.122573, 0.122289, 0.122530, 0.122665, 0.122629, 0.122584, 0.122562, 0.122676, 0.123120, 0.123693, 0.124127, 0.125022, 0.127000, 0.129289, 0.130561, 0.130835, 0.131092, 0.131443, 0.131566, 0.131569, 0.132111, 0.134041, 0.136495, 0.137468, 0.137020, 0.136518, 0.136433, 0.136702, 0.137316, 0.138281, 0.139068, 0.138823, 0.137511, 0.136156, 0.136041, 0.137679, 0.140284, 0.142217, 0.142854, 0.143000, 0.143256, 0.144013, 0.144605, 0.143847, 0.142418, 0.141489, 0.140598, 0.138929, 0.136633, 0.135623, 0.136920, 0.137194, 0.137296, 0.138894, 0.134734, 0.126396, 0.123946, 0.125896, 0.127716, 0.128880, 0.129525, 0.130027, 0.130411, 0.130540, 0.130615, 0.130736, 0.130636, 0.130452, 0.130814, 0.131946, 0.133824, 0.136355, 0.138507, 0.138951, 0.138006, 0.136525, 0.134733, 0.132703, 0.130562, 0.128550, 0.126967, 0.126001, 0.125615, 0.125637, 0.125785, 0.125343, 0.123359, 0.120495, 0.118989, 0.119136, 0.119521, 0.119636, 0.119533, 0.119042, 0.117931, 0.116690, 0.116284, 0.116825, 0.117970, 0.119357, 0.119404, 0.117169, 0.114842, 0.114072, 0.113880, 0.113570, 0.112234, 0.110214, 0.110238, 0.112278, 0.113784, 0.114422, 0.115011, 0.115723, 0.115824, 0.114759, 0.114826, 0.113355, 0.106206, 0.101102, 0.101207, 0.100102, 0.097276, 0.094862, 0.093090, 0.091687, 0.090749, 0.090456, 0.090768, 0.091433, 0.092160, 0.092747, 0.092901, 0.092171, 0.090443, 0.087664, 0.083897, 0.081154, 0.082862, 0.088086, 0.091930, 0.092770, 0.092631, 0.092427, 0.092363, 0.092320, 0.092169, 0.092389, 0.092375, 0.092284, 0.093293, 0.094777, 0.095658, 0.095812, 0.095484, 0.094984, 0.094563, 0.094236, 0.093975, 0.093814, 0.093985, 0.094534, 0.094017, 0.093030, 0.095479, 0.099220, 0.100097, 0.100072, 0.100884, 0.101949, 0.102811, 0.103641, 0.104381, 0.103834, 0.101742, 0.099590, 0.098248, 0.097322, 0.096230, 0.094839, 0.093755, 0.093415, 0.093519, 0.093600, 0.093454, 0.093137, 0.092891, 0.092968, 0.093235, 0.093392, 0.093404, 0.093332, 0.093077, 0.092527, 0.091818, 0.091097, 0.090542, 0.090317, 0.090318, 0.090369, 0.090334, 0.090141, 0.089373, 0.086780, 0.082243, 0.078956, 0.078328, 0.078296, 0.078593, 0.079264, 0.080302, 0.081545, 0.082142, 0.082736, 0.083308, 0.082487, 0.080721, 0.079460, 0.078901, 0.078787, 0.079176, 0.079778, 0.080397, 0.080993, 0.081426, 0.081290, 0.080662, 0.081708, 0.083909, 0.082831, 0.080910, 0.082285, 0.083341, 0.082490, 0.081293, 0.080293, 0.079148, 0.078160, 0.078084, 0.078569, 0.078847, 0.078890, 0.078871, 0.078864, 0.078945, 0.078908, 0.078658, 0.078415, 0.078309, 0.078286, 0.078275, 0.078191, 0.077920, 0.077584, 0.077389, 0.077350, 0.077353, 0.077355, 0.077326, 0.077162, 0.076961, 0.076883, 0.076870, 0.076847, 0.076793, 0.076778, 0.076757, 0.076573, 0.076092, 0.075160, 0.073996, 0.073423, 0.073431, 0.073152, 0.072304, 0.071059, 0.069717, 0.068559, 0.067583, 0.066737, 0.066331, 0.066404, 0.066412, 0.066453, 0.066456, 0.066005, 0.065325, 0.064726, 0.064376, 0.064417, 0.064879, 0.065252, 0.064314, 0.060569, 0.053079, 0.043339, 0.036136, 0.033908, 0.033508, 0.034053, 0.040270, 0.053061, 0.063717, 0.067667, 0.067970, 0.067944, 0.068183, 0.068250, 0.068324, 0.068718, 0.068834, 0.068842, 0.069424, 0.070462, 0.071288, 0.071537, 0.071525, 0.071613, 0.071692, 0.071692, 0.071763, 0.071815, 0.071815, 0.071814, 0.071834, 0.071909, 0.071960, 0.071947, 0.072312, 0.073586, 0.075471, 0.077345, 0.079014, 0.080370, 0.081251, 0.081794, 0.082283, 0.082797, 0.083099, 0.083090, 0.082998, 0.082905, 0.082846, 0.082907, 0.082943, 0.082778, 0.082607, 0.082623, 0.082611, 0.082535, 0.082531, 0.082631, 0.082651, 0.082362, 0.081908, 0.081636, 0.081611, 0.081639, 0.081558, 0.081402, 0.081246, 0.081090, 0.080956, 0.080940, 0.080588, 0.077422, 0.069147, 0.059453, 0.054344, 0.053047, 0.052691, 0.052574, 0.052923, 0.053112, 0.052497, 0.052557, 0.054021, 0.055288, 0.054856, 0.053777, 0.054433, 0.056905, 0.059436, 0.061275, 0.062511, 0.063155, 0.063393, 0.063399, 0.063811, 0.066414, 0.072055, 0.078011, 0.081280, 0.081826, 0.080789, 0.079055, 0.077255, 0.075574, 0.074138, 0.073175, 0.072583, 0.072050, 0.071448, 0.071052, 0.070986, 0.070987, 0.070984, 0.070967, 0.070878, 0.070806, 0.070804, 0.070829, 0.070810, 0.070778, 0.070836, 0.070921, 0.070864, 0.070740, 0.070708, 0.070699, 0.070555, 0.070280, 0.069875, 0.069440, 0.069184, 0.069164, 0.069290, 0.069464, 0.069641, 0.069814, 0.070030, 0.070375, 0.070897, 0.071449, 0.071742, 0.071718, 0.071560, 0.071328, 0.071109, 0.071111, 0.070988, 0.070053, 0.068754, 0.068398, 0.068732, 0.068123, 0.066108, 0.063741, 0.061936, 0.061004, 0.060813, 0.060848, 0.060886, 0.060461, 0.057593, 0.050242, 0.040263, 0.033275, 0.031730, 0.033299, 0.035759, 0.037449, 0.037995, 0.038096, 0.038220, 0.038722, 0.039729, 0.040849, 0.041742, 0.042367, 0.042807, 0.043073, 0.043181, 0.043201, 0.043201, 0.043221, 0.043375, 0.043839, 0.044479, 0.044842, 0.044848, 0.044816, 0.044969, 0.045355, 0.045799, 0.045977, 0.045754, 0.045489, 0.045429, 0.045433, 0.045338, 0.045142, 0.044887, 0.044612, 0.044347, 0.044036, 0.043522, 0.042696, 0.041787, 0.041288, 0.041237, 0.041197, 0.041096, 0.041085, 0.041058, 0.040879, 0.040559, 0.040096, 0.039489, 0.038912, 0.038688, 0.038932, 0.039358, 0.039514, 0.039054, 0.038175, 0.037618, 0.037541, 0.037533, 0.037508, 0.037557, 0.037673, 0.037766, 0.037499, 0.036277, 0.034127, 0.032305, 0.031589, 0.031471, 0.031498, 0.031160, 0.030113, 0.028825, 0.027798, 0.027194, 0.026882, 0.026701, 0.026626, 0.026613, 0.026612, 0.026556, 0.026244, 0.025425, 0.024297, 0.023448, 0.023059, 0.022820, 0.022359, 0.021495, 0.020589, 0.020401, 0.021250, 0.022812, 0.024863, 0.027062, 0.028592, 0.029116, 0.029196, 0.029238, 0.029269, 0.029225, 0.029220, 0.029299, 0.029355, 0.029370, 0.029421, 0.029552, 0.029871, 0.030488, 0.030991, 0.031087, 0.031032, 0.031010, 0.031003, 0.031025, 0.031054, 0.030904, 0.030582, 0.030419, 0.030420, 0.030432, 0.030635, 0.030969, 0.031098, 0.031071, 0.031139, 0.031092, 0.030859, 0.030505, 0.030001, 0.029738, 0.029720, 0.029729, 0.029690, 0.029491, 0.029158, 0.028849, 0.028595, 0.028312, 0.027943, 0.027568, 0.027360, 0.027397, 0.027576, 0.027769, 0.027957, 0.028143, 0.028256, 0.028250, 0.028323, 0.028779, 0.029766, 0.030936, 0.031589, 0.031633, 0.031408, 0.030770, 0.029666, 0.028317, 0.026644, 0.025139, 0.024493, 0.024509, 0.024937, 0.025611, 0.026304, 0.026730, 0.026851, 0.026817, 0.026757, 0.026757, 0.026701, 0.026326, 0.025592, 0.024982, 0.024841, 0.024907, 0.024988, 0.025091, 0.025122, 0.024960, 0.024685, 0.024432, 0.024276, 0.024267, 0.024326, 0.024162, 0.023802, 0.023662, 0.023668, 0.023467, 0.023325, 0.023331, 0.023306, 0.023318, 0.023230, 0.023162, 0.023170, 0.023165, 0.023145, 0.023136, 0.023142, 0.023164, 0.023161, 0.023154, 0.023181, 0.023161, 0.023014, 0.022783, 0.022559, 0.022391, 0.022189, 0.022044, 0.022072, 0.022092, 0.021701, 0.020519, 0.018830, 0.017754, 0.017629, 0.017611, 0.017610, 0.017641, 0.017193, 0.016522, 0.016280, 0.016326, 0.016136, 0.015384, 0.014175, 0.012908, 0.011863, 0.011395, 0.012411, 0.014971, 0.017269, 0.018203, 0.018354, 0.018386, 0.018421, 0.018403, 0.018462, 0.018688, 0.018902, 0.019113, 0.019490, 0.019903, 0.020031, 0.019994, 0.019984, 0.019905, 0.019790, 0.019718, 0.019711, 0.019732, 0.019741, 0.019752, 0.019924, 0.021029, 0.023762, 0.026701, 0.028227, 0.028652, 0.028749, 0.028780, 0.028780, 0.028921, 0.029795, 0.031831, 0.034643, 0.037518, 0.039717, 0.040795, 0.041080, 0.041096, 0.041061, 0.041078, 0.041106, 0.041093, 0.041035, 0.040980, 0.040990, 0.040978, 0.040964, 0.041015, 0.041031, 0.041020, 0.041057, 0.041119, 0.041179, 0.041188, 0.041170, 0.041186, 0.041228, 0.041232, 0.041213, 0.041212, 0.041194, 0.040900, 0.040051, 0.039599, 0.040135, 0.040607, 0.040671, 0.040654, 0.040658, 0.040597, 0.040466, 0.040400, 0.040361, 0.040227, 0.040028, 0.039940, 0.039969, 0.040021, 0.040061, 0.040069, 0.040066, 0.040110, 0.040524, 0.041568, 0.042718, 0.043226, 0.042786, 0.041327, 0.039504, 0.038409, 0.038084, 0.038040, 0.038236, 0.039183, 0.041336, 0.043439, 0.043270, 0.041082, 0.038789, 0.036903, 0.035714, 0.035461, 0.035523, 0.035534, 0.035505, 0.035573, 0.035845, 0.036136, 0.036159, 0.036027, 0.036004, 0.036016, 0.035950, 0.035927, 0.036069, 0.036686, 0.037588, 0.037901, 0.037889, 0.038177, 0.038378, 0.038349, 0.038354, 0.038380, 0.038379, 0.038360, 0.038316, 0.038299, 0.037753, 0.036661, 0.036011, 0.035902, 0.035903, 0.035921, 0.035963, 0.035942, 0.035833, 0.035726, 0.035676, 0.035664, 0.035680, 0.035694, 0.035702, 0.035729, 0.035747, 0.035744, 0.035699, 0.035300, 0.034212, 0.032922, 0.032271, 0.032236, 0.032275, 0.032230, 0.032201, 0.032327, 0.032802, 0.033282, 0.032721, 0.030130, 0.026209, 0.024095, 0.024061, 0.023529, 0.022992, 0.023045, 0.022946, 0.022808, 0.022776, 0.022750, 0.022615, 0.022238, 0.021830, 0.021730, 0.021742, 0.021695, 0.021684, 0.021727, 0.021773, 0.021584, 0.020392, 0.018428, 0.017630, 0.017631, 0.016997, 0.016484, 0.016447, 0.016408, 0.016367, 0.016378, 0.016374, 0.016364, 0.016362, 0.016363, 0.016367, 0.016380, 0.016419, 0.016528, 0.016606, 0.016557, 0.016553, 0.016627, 0.016825, 0.017153, 0.017486, 0.017750, 0.017921, 0.018015, 0.018057, 0.018061, 0.018063, 0.018020, 0.017854, 0.017606, 0.017335, 0.017097, 0.017088, 0.017194, 0.017227, 0.017221, 0.016994, 0.016029, 0.014462, 0.013168, 0.012460, 0.012129, 0.012024, 0.012087, 0.012154, 0.012062, 0.011965, 0.012152, 0.012686, 0.013427, 0.014006, 0.014153, 0.014047, 0.013994, 0.014060, 0.014130, 0.014144, 0.014118, 0.014048, 0.013977, 0.013959, 0.014028, 0.014234, 0.014509, 0.014657, 0.014662, 0.014703, 0.014756, 0.014761, 0.014748, 0.014774, 0.014911, 0.015133, 0.015252, 0.015259, 0.015239, 0.015247, 0.015238, 0.015118, 0.015051, 0.015130, 0.015187, 0.015133, 0.014894, 0.014501, 0.014122, 0.013964, 0.014087, 0.014184, 0.014098, 0.014026, 0.014097, 0.014304, 0.014574, 0.014772, 0.014828, 0.014822, 0.014725, 0.014776, 0.015230, 0.015792, 0.016073, 0.016107, 0.016086, 0.016089, 0.016145, 0.016273, 0.016446, 0.016554, 0.016596, 0.016615, 0.016591, 0.016445, 0.016096, 0.015596, 0.015221, 0.015169, 0.015213, 0.015156, 0.015040, 0.014965, 0.014953, 0.014982, 0.015016, 0.015014, 0.014946, 0.014825, 0.014628, 0.014341, 0.014195, 0.014258, 0.014313, 0.014332, 0.014357, 0.014390, 0.014391, 0.014264, 0.014038, 0.013972, 0.014105, 0.014189, 0.014159, 0.014241, 0.014466, 0.014499, 0.014355, 0.014262, 0.014234, 0.014248, 0.014294, 0.014352, 0.014299, 0.013970, 0.013543, 0.013382, 0.013441, 0.013403, 0.013177, 0.012880, 0.012593, 0.012468, 0.012499, 0.012457, 0.012152, 0.011507, 0.010751, 0.010324, 0.010264, 0.010331, 0.010347, 0.010216, 0.009919, 0.009516, 0.009207, 0.009031, 0.008961, 0.008951, 0.008924, 0.008819, 0.008619, 0.008358, 0.008141, 0.008084, 0.008082, 0.008059, 0.008049, 0.008088, 0.008096, 0.008061, 0.008055, 0.008104, 0.008138, 0.008134, 0.008280, 0.008571, 0.008902, 0.009134, 0.009184, 0.009142, 0.009074, 0.009002, 0.008970, 0.008946, 0.008844, 0.008611, 0.008488, 0.008521, 0.008369, 0.008036, 0.007845, 0.007873, 0.007993, 0.008052, 0.008016, 0.007945, 0.007793, 0.007516, 0.007270, 0.007329, 0.007507, 0.007538, 0.007573, 0.007692, 0.007795, 0.007951, 0.008115, 0.008084, 0.008071, 0.008126, 0.008106, 0.008071, 0.008014, 0.007997, 0.008125, 0.008416, 0.008774, 0.009255, 0.010165, 0.011621, 0.013172, 0.014214, 0.014579, 0.014588, 0.014621, 0.014659, 0.014675, 0.014744, 0.015019, 0.015462, 0.015789, 0.015925, 0.015955, 0.015950, 0.015975, 0.016103, 0.016426, 0.016900, 0.017414, 0.017787, 0.017857, 0.017670, 0.017501, 0.017713, 0.018399, 0.019201, 0.019697, 0.019888, 0.019957, 0.019996, 0.020028, 0.020045, 0.020035, 0.020033, 0.020147, 0.020400, 0.020610, 0.020658, 0.020643, 0.020648, 0.020698, 0.020854, 0.021158, 0.021463, 0.021575, 0.021531, 0.021481, 0.021448, 0.021408, 0.021386, 0.021325, 0.021304, 0.021475, 0.021609, 0.021609, 0.021609, 0.021620, 0.021711, 0.021872, 0.021957, 0.021980, 0.022062, 0.022165, 0.022019, 0.021417, 0.020541, 0.019829, 0.019578, 0.019668, 0.019757, 0.019768, 0.019762, 0.019717, 0.019514, 0.019189, 0.019023, 0.019171, 0.019597, 0.020141, 0.020387, 0.020279, 0.020105, 0.019746, 0.019293, 0.018912, 0.018720, 0.018708, 0.018710, 0.018492, 0.017875, 0.017070, 0.016519, 0.016288, 0.016201, 0.016153, 0.016115, 0.016159, 0.016365, 0.016518, 0.016404, 0.016112, 0.015874, 0.015788, 0.015787, 0.015778, 0.015710, 0.015497, 0.015233, 0.015166, 0.015127, 0.015099, 0.015266, 0.015304, 0.015373, 0.015554, 0.015569, 0.015682, 0.015961, 0.016052, 0.016008, 0.016144, 0.016459, 0.016556, 0.016413, 0.016302, 0.016293, 0.016230, 0.016051, 0.015855, 0.015678, 0.015806, 0.016521, 0.017190, 0.017255, 0.017123, 0.017078, 0.017249, 0.017698, 0.018122, 0.018444, 0.018637, 0.018540, 0.018079, 0.017446, 0.017122, 0.017183, 0.017139, 0.017077, 0.017236, 0.017584, 0.017899, 0.018043, 0.018045, 0.017995, 0.017979, 0.018092, 0.018273, 0.018355, 0.018362, 0.018368, 0.018412, 0.018396, 0.018209, 0.018076, 0.018097, 0.018124, 0.018095, 0.018080, 0.018140, 0.018200, 0.018206, 0.018204, 0.018117, 0.017965, 0.018001, 0.018063, 0.017921, 0.017902, 0.017851, 0.017660, 0.017640, 0.017489, 0.017028, 0.016799, 0.016902, 0.016990, 0.017090, 0.017508, 0.018052, 0.018303, 0.018213, 0.018009, 0.017816, 0.017721, 0.017766, 0.017640, 0.016983, 0.016280, 0.016170, 0.016302, 0.016373, 0.016204, 0.015716, 0.015281, 0.015072, 0.014944, 0.014900, 0.015010, 0.015153, 0.015277, 0.015358, 0.015437, 0.015494, 0.015316, 0.014890, 0.014482, 0.014282, 0.014259, 0.014305, 0.014231, 0.014130, 0.014064, 0.013983, 0.014000, 0.014063, 0.014018, 0.013965, 0.014041, 0.014074, 0.013996, 0.013933, 0.013977, 0.014098, 0.014144, 0.014115, 0.014108, 0.014104, 0.014047, 0.013870, 0.013711, 0.013724, 0.013751, 0.013730, 0.013716, 0.013736, 0.013789, 0.013816, 0.013808, 0.013751, 0.013629, 0.013368, 0.012832, 0.011960, 0.010989, 0.010419, 0.010297, 0.010294, 0.010305, 0.010375, 0.010698, 0.011345, 0.012017, 0.012499, 0.012810, 0.013090, 0.013473, 0.013970, 0.014533, 0.015098, 0.015565, 0.015921, 0.016173, 0.016333, 0.016407, 0.016367, 0.016225, 0.016140, 0.016308, 0.016869, 0.018198, 0.019994, 0.021243, 0.022017, 0.023225, 0.025748, 0.028305, 0.029220, 0.029241, 0.029323, 0.029441, 0.029590, 0.029909, 0.030504, 0.031222, 0.031886, 0.032469, 0.032914, 0.033117, 0.033117, 0.033100, 0.033174, 0.033325, 0.033498, 0.033657, 0.033753, 0.033767, 0.033768, 0.033786, 0.034104, 0.036093, 0.040739, 0.045704, 0.048798, 0.050350, 0.051127, 0.051410, 0.051432, 0.051439, 0.051438, 0.051475, 0.051553, 0.051553, 0.051655, 0.052049, 0.052589, 0.053162, 0.053950, 0.055027, 0.056041, 0.056633, 0.056767, 0.056668, 0.056541, 0.056816, 0.058764, 0.062250, 0.065673, 0.068538, 0.071155, 0.073531, 0.075339, 0.076346, 0.076579, 0.076458, 0.076284, 0.075895, 0.075586, 0.075604, 0.075286, 0.075118, 0.079139, 0.087499, 0.093024, 0.093817, 0.093802, 0.093763, 0.094159, 0.095621, 0.097078, 0.097941, 0.098364, 0.098501, 0.098476, 0.098458, 0.098539, 0.098726, 0.098996, 0.099348, 0.099826, 0.100489, 0.101303, 0.102072, 0.102536, 0.102546, 0.101860, 0.100096, 0.097994, 0.097232, 0.097864, 0.098370, 0.098290, 0.098535, 0.099539, 0.100761, 0.101679, 0.102500, 0.103943, 0.106613, 0.109945, 0.112272, 0.112829, 0.112404, 0.112103, 0.112413, 0.113177, 0.114152, 0.115289, 0.116575, 0.117590, 0.117364, 0.115805, 0.113877, 0.112142, 0.110476, 0.108943, 0.107888, 0.107262, 0.107068, 0.107285, 0.107781, 0.108875, 0.110578, 0.112165, 0.113389, 0.113891, 0.111473, 0.105833, 0.101764, 0.101208, 0.101190, 0.101686, 0.102966, 0.104774, 0.107021, 0.108529, 0.108929, 0.108942, 0.109007, 0.109074, 0.109011, 0.108822, 0.108553, 0.108264, 0.108108, 0.108187, 0.108274, 0.108235, 0.108316, 0.108573, 0.108626, 0.108785, 0.109609, 0.110090, 0.109652, 0.109365, 0.109652, 0.109584, 0.108695, 0.107563, 0.106689, 0.105914, 0.104685, 0.102317, 0.099004, 0.096262, 0.095211, 0.095751, 0.097530, 0.100453, 0.104273, 0.108196, 0.111297, 0.113303, 0.114677, 0.115587, 0.115606, 0.115881, 0.118173, 0.121287, 0.124106, 0.127803, 0.133523, 0.138642, 0.140535, 0.140577, 0.140147, 0.139835, 0.139694, 0.139446, 0.139024, 0.138356, 0.137539, 0.137184, 0.137921, 0.139659, 0.141578, 0.142519, 0.141816, 0.140111, 0.138575, 0.137848, 0.138780, 0.141538, 0.144660, 0.147154, 0.149454, 0.152578, 0.156923, 0.161035, 0.163122, 0.163469, 0.163297, 0.163133, 0.163097, 0.163183, 0.163071, 0.162758, 0.163092, 0.164503, 0.166647, 0.169323, 0.172728, 0.177070, 0.182061, 0.186453, 0.188851, 0.189326, 0.189106, 0.189080, 0.189421, 0.190008, 0.190518, 0.190403, 0.189127, 0.186770, 0.184018, 0.181487, 0.179411, 0.177957, 0.177492, 0.178123, 0.178750, 0.178098, 0.176923, 0.175836, 0.173888, 0.170387, 0.167480, 0.167262, 0.167933, 0.167748, 0.167070, 0.167398, 0.168771, 0.169861, 0.170285, 0.170456, 0.170575, 0.171003, 0.172092, 0.172790, 0.172021, 0.170600, 0.170149, 0.171054, 0.172174, 0.172103, 0.170785, 0.169511, 0.168323, 0.166364, 0.163716, 0.160062, 0.155937, 0.153294, 0.152464, 0.152703, 0.153063, 0.152948, 0.152851, 0.153106, 0.153194, 0.152327, 0.150329, 0.147668, 0.144960, 0.143013, 0.140154, 0.134016, 0.128271, 0.125712, 0.124910, 0.124952, 0.125157, 0.130443, 0.139666, 0.144648, 0.145344, 0.145486, 0.147194, 0.150732, 0.154119, 0.155742, 0.155806, 0.155054, 0.154072, 0.153184, 0.152715, 0.153405, 0.155287, 0.157097, 0.157843, 0.157469, 0.156403, 0.155474, 0.155271, 0.155521, 0.155500, 0.154738, 0.153795, 0.153370, 0.153275, 0.153031, 0.151755, 0.149016, 0.146396, 0.145680, 0.146258, 0.146481, 0.146251, 0.146501, 0.147175, 0.147358, 0.146620, 0.146033, 0.146389, 0.146686, 0.146693, 0.146894, 0.147060, 0.146997, 0.146482, 0.145910, 0.145829, 0.146287, 0.147626, 0.149133, 0.149536, 0.149418, 0.149366, 0.148764, 0.146610, 0.144185, 0.143919, 0.144111, 0.144522, 0.145251, 0.145216, 0.145460, 0.141041, 0.131291, 0.124576, 0.122292, 0.120959, 0.118257, 0.113734, 0.109832, 0.108283, 0.108185, 0.108301, 0.108331, 0.108225, 0.107489, 0.104945, 0.100611, 0.096505, 0.094029, 0.092772, 0.092027, 0.091682, 0.091696, 0.090918, 0.088427, 0.086269, 0.086320, 0.087501, 0.088346, 0.088640, 0.088849, 0.088881, 0.088474, 0.087667, 0.086704, 0.085532, 0.083725, 0.081154, 0.078284, 0.075798, 0.074093, 0.073039, 0.072220, 0.071303, 0.070332, 0.069670, 0.069320, 0.069115, 0.069183, 0.069648, 0.070203, 0.069539, 0.066108, 0.061695, 0.059942, 0.059967, 0.059921, 0.059895, 0.060057, 0.060086, 0.059835, 0.058619, 0.055319, 0.053541, 0.055438, 0.056859, 0.057460, 0.057820, 0.057873, 0.059492, 0.062614, 0.065738, 0.067400, 0.067212, 0.066523, 0.066272, 0.066354, 0.066497, 0.066532, 0.066605, 0.067348, 0.068554, 0.069113, 0.068802, 0.068374, 0.068325, 0.068400, 0.068388, 0.068442, 0.068528, 0.068341, 0.067927, 0.068659, 0.071313, 0.074103, 0.075489, 0.075746, 0.075698, 0.075831, 0.075942, 0.075733, 0.075672, 0.075861, 0.075808, 0.075691, 0.075673, 0.075664, 0.075613, 0.075455, 0.075181, 0.075146, 0.075173, 0.075178, 0.075198, 0.074962, 0.074425, 0.074144, 0.074667, 0.076529, 0.081695, 0.091353, 0.101653, 0.107995, 0.110525, 0.111844, 0.113431, 0.115347, 0.116799, 0.117079, 0.116205, 0.114609, 0.113166, 0.112760, 0.112756, 0.112944, 0.114431, 0.116447, 0.117738, 0.118568, 0.119541, 0.120950, 0.122717, 0.124526, 0.126167, 0.127451, 0.128112, 0.128291, 0.128456, 0.128668, 0.128693, 0.128741, 0.129313, 0.130068, 0.130349, 0.130301, 0.130159, 0.129675, 0.128316, 0.126158, 0.124241, 0.123253, 0.122935, 0.122823, 0.122714, 0.122642, 0.122652, 0.122516, 0.122307, 0.122429, 0.122901, 0.123562, 0.124050, 0.124159, 0.124136, 0.124131, 0.123982, 0.123896, 0.123894, 0.123792, 0.123666, 0.123642, 0.123628, 0.123311, 0.122160, 0.118771, 0.111590, 0.102744, 0.097047, 0.094995, 0.093785, 0.091861, 0.089493, 0.088501, 0.089687, 0.091639, 0.092999, 0.093461, 0.093420, 0.093588, 0.092880, 0.089489, 0.084876, 0.081509, 0.079509, 0.078038, 0.077125, 0.077471, 0.077859, 0.076229, 0.074004, 0.073111, 0.072791, 0.072996, 0.075502, 0.081006, 0.084852, 0.084390, 0.083468, 0.083677, 0.083916, 0.084031, 0.084241, 0.084613, 0.084958, 0.085102, 0.085103, 0.085379, 0.086927, 0.090375, 0.094405, 0.096812, 0.097318, 0.097227, 0.097054, 0.096557, 0.095760, 0.095157, 0.095005, 0.095005, 0.094993, 0.094991, 0.095042, 0.095147, 0.095255, 0.095398, 0.095697, 0.096268, 0.097116, 0.098002, 0.098675, 0.098957, 0.098589, 0.097641, 0.096707, 0.096345, 0.096580, 0.096900, 0.096500, 0.095133, 0.093432, 0.092235, 0.091819, 0.091814, 0.091627, 0.091081, 0.090588, 0.090329, 0.090165, 0.090028, 0.089695, 0.088535, 0.086169, 0.084546, 0.085795, 0.087479, 0.087090, 0.086200, 0.086048, 0.084126, 0.078806, 0.074785, 0.074621, 0.074394, 0.073663, 0.073607, 0.074002, 0.074582, 0.075034, 0.075127, 0.075043, 0.075043, 0.074726, 0.072985, 0.068802, 0.063209, 0.059454, 0.058620, 0.058700, 0.058577, 0.058402, 0.058458, 0.058543, 0.058519, 0.058614, 0.058838, 0.059141, 0.059542, 0.060059, 0.060583, 0.060960, 0.061080, 0.060810, 0.060078, 0.058929, 0.057795, 0.057108, 0.057028, 0.057983, 0.058951, 0.059123, 0.058732, 0.057905, 0.057176, 0.057375, 0.058546, 0.059061, 0.058987, 0.059078, 0.059060, 0.059326, 0.060349, 0.061899, 0.063223, 0.063984, 0.064537, 0.065542, 0.067828, 0.070841, 0.072175, 0.071619, 0.071327, 0.071206, 0.070088, 0.069407, 0.069670, 0.069376, 0.068924, 0.068888, 0.068874, 0.068617, 0.068060, 0.067189, 0.066338, 0.066168, 0.066867, 0.068075, 0.069402, 0.070475, 0.071280, 0.072013, 0.072712, 0.073327, 0.073775, 0.074039, 0.074149, 0.074063, 0.073956, 0.074004, 0.074175, 0.074469, 0.074688, 0.074529, 0.074031, 0.073474, 0.072985, 0.072496, 0.071926, 0.071362, 0.071155, 0.071354, 0.071646, 0.071688, 0.070940, 0.070150, 0.069960, 0.069950, 0.070036, 0.070842, 0.071825, 0.071463, 0.070899, 0.070901, 0.070831, 0.070857, 0.070799, 0.070084, 0.068756, 0.067533, 0.066892, 0.066365, 0.065090, 0.061859, 0.056180, 0.050872, 0.048699, 0.048422, 0.048423, 0.048593, 0.050059, 0.052836, 0.054943, 0.055638, 0.055849, 0.056223, 0.057006, 0.057717, 0.058063, 0.058129, 0.057834, 0.056938, 0.055527, 0.054097, 0.052890, 0.051928, 0.051593, 0.053159, 0.057167, 0.061970, 0.066233, 0.069816, 0.072739, 0.074689, 0.075266, 0.075039, 0.075712, 0.077751, 0.079823, 0.081047, 0.081520, 0.081595, 0.081588, 0.081590, 0.081610, 0.081642, 0.081487, 0.081234, 0.081188, 0.081764, 0.082445, 0.082609, 0.082611, 0.082590, 0.082505, 0.083129, 0.085099, 0.087004, 0.087817, 0.088066, 0.088129, 0.088000, 0.087861, 0.088141, 0.088771, 0.089346, 0.090000, 0.090879, 0.091614, 0.091905, 0.091916, 0.091989, 0.092159, 0.092240, 0.092090, 0.091258, 0.089733, 0.088556, 0.088184, 0.088084, 0.087887, 0.087531, 0.087397, 0.087605, 0.087865, 0.088012, 0.088118, 0.088181, 0.088133, 0.088033, 0.087854, 0.087637, 0.087269, 0.086172, 0.084026, 0.081065, 0.077925, 0.075295, 0.073742, 0.073576, 0.073997, 0.073178, 0.070730, 0.068184, 0.066677, 0.066265, 0.066404, 0.066469, 0.066475, 0.066528, 0.066491, 0.066470, 0.066463, 0.066313, 0.065602, 0.064938, 0.065024, 0.065353, 0.065583, 0.064952, 0.062470, 0.058819, 0.055905, 0.054716, 0.054824, 0.054769, 0.055162, 0.056501, 0.057239, 0.057119, 0.056760, 0.056181, 0.055076, 0.053846, 0.053301, 0.053290, 0.053413, 0.053728, 0.054000, 0.054005, 0.053912, 0.053594, 0.053320, 0.053694, 0.054580, 0.055334, 0.055345, 0.054823, 0.054630, 0.054837, 0.055152, 0.055667, 0.056454, 0.057115, 0.057350, 0.057436, 0.057067, 0.055306, 0.052531, 0.050472, 0.049803, 0.049833, 0.049719, 0.049550, 0.050100, 0.050727, 0.050455, 0.050213, 0.050225, 0.050281, 0.050508, 0.050521, 0.050516, 0.050511, 0.050440, 0.050933, 0.052890, 0.055849, 0.058313, 0.059650, 0.060453, 0.062070, 0.066579, 0.073908, 0.079885, 0.081902, 0.081885, 0.082335, 0.083404, 0.084358, 0.085447, 0.086189, 0.086441, 0.087367, 0.088775, 0.089208, 0.088910, 0.088742, 0.089409, 0.092081, 0.096359, 0.100527, 0.103252, 0.104234, 0.104272, 0.104578, 0.105771, 0.107369, 0.108780, 0.110262, 0.112297, 0.114711, 0.116622, 0.117368, 0.117256, 0.116933, 0.116670, 0.116375, 0.116090, 0.115984, 0.116002, 0.116049, 0.116047, 0.115870, 0.115666, 0.116123, 0.117402, 0.118450, 0.118533, 0.118016, 0.117666, 0.117933, 0.118441, 0.118932, 0.119157, 0.119017, 0.118890, 0.118869, 0.118868, 0.119030, 0.119369, 0.119231, 0.118494, 0.117941, 0.117996, 0.118101, 0.117349, 0.114702, 0.109946, 0.105710, 0.104707, 0.105725, 0.106279, 0.105761, 0.104798, 0.103873, 0.103043, 0.102042, 0.100492, 0.098761, 0.098106, 0.098409, 0.098859, 0.098704, 0.096734, 0.093026, 0.088787, 0.085422, 0.084010, 0.083964, 0.083497, 0.081993, 0.080061, 0.077873, 0.075064, 0.071348, 0.067177, 0.064174, 0.063413, 0.064334, 0.065763, 0.066807, 0.067377, 0.068114, 0.070209, 0.074593, 0.079029, 0.080490, 0.080503, 0.081947, 0.084296, 0.087878, 0.097008, 0.113268, 0.130358, 0.141704, 0.145973, 0.146108, 0.145764, 0.145882, 0.145878, 0.145914, 0.145950, 0.145995, 0.146199, 0.145932, 0.145429, 0.146910, 0.151713, 0.156522, 0.157808, 0.157615, 0.158359, 0.159136, 0.159318, 0.159066, 0.158567, 0.158291, 0.158380, 0.158577, 0.158853, 0.159490, 0.160718, 0.161994, 0.162603, 0.162670, 0.162521, 0.162459, 0.162644, 0.162878, 0.163293, 0.164572, 0.166601, 0.167759, 0.167935, 0.167961, 0.168063, 0.168063, 0.168220, 0.169947, 0.172410, 0.173658, 0.173660, 0.173294, 0.172887, 0.172449, 0.172130, 0.172170, 0.172688, 0.173210, 0.172729, 0.171453, 0.170874, 0.170864, 0.170136, 0.168716, 0.167541, 0.168331, 0.169576, 0.166810, 0.160878, 0.157028, 0.156673, 0.157411, 0.158766, 0.161492, 0.164121, 0.164888, 0.164888, 0.165451, 0.166148, 0.166369, 0.164686, 0.159856, 0.154663, 0.152960, 0.153022, 0.152274, 0.151534, 0.151339, 0.151299, 0.151177, 0.150905, 0.150612, 0.150376, 0.150081, 0.149429, 0.148181, 0.147016, 0.147080, 0.148559, 0.150793, 0.152915, 0.154869, 0.157683, 0.161826, 0.165584, 0.167255, 0.168215, 0.169576, 0.171233, 0.172415, 0.172370, 0.174513, 0.182656, 0.193373, 0.201702, 0.206922, 0.209483, 0.209941, 0.209864, 0.209841, 0.209600, 0.209641, 0.209431, 0.208490, 0.207983, 0.208867, 0.210634, 0.212171, 0.212585, 0.211340, 0.206225, 0.196594, 0.188285, 0.185333, 0.185090, 0.185012, 0.184371, 0.184193, 0.183764, 0.181950, 0.181294, 0.182390, 0.183790, 0.185562, 0.187490, 0.188926, 0.189705, 0.189910, 0.189921, 0.190335, 0.193254, 0.199342, 0.203369, 0.203752, 0.203897, 0.204655, 0.206728, 0.213492, 0.226373, 0.238119, 0.243050, 0.243794, 0.243457, 0.242575, 0.241303, 0.239886, 0.238344, 0.236176, 0.232847, 0.229578, 0.229961, 0.234879, 0.240182, 0.242369, 0.242280, 0.242298, 0.240624, 0.233254, 0.222560, 0.214076, 0.209445, 0.207707, 0.207483, 0.207558, 0.207930, 0.210458, 0.214675, 0.217435, 0.217939, 0.217917, 0.217517, 0.215946, 0.214468, 0.213983, 0.214459, 0.217007, 0.219308, 0.219399, 0.219387, 0.219401, 0.219957, 0.221290, 0.220764, 0.219112, 0.218652, 0.218614, 0.217817, 0.216067, 0.213936, 0.212351, 0.211900, 0.211670, 0.211424, 0.211753, 0.211463, 0.208999, 0.204416, 0.201431, 0.201094, 0.201221, 0.201995, 0.202106, 0.196741, 0.182755, 0.167551, 0.160368, 0.159031, 0.158867, 0.158699, 0.158761, 0.159917, 0.161718, 0.162867, 0.163248, 0.162681, 0.158327, 0.148949, 0.138934, 0.133208, 0.131702, 0.131628, 0.131627, 0.131651, 0.131758, 0.131729, 0.130900, 0.129572, 0.129292, 0.131839, 0.139227, 0.149801, 0.157586, 0.158724, 0.157800, 0.160154, 0.163507, 0.166085, 0.168205, 0.171146, 0.174607, 0.175204, 0.175077, 0.176310, 0.176417, 0.176440, 0.176378, 0.175546, 0.175189, 0.175185, 0.175257, 0.175227, 0.175902, 0.178388, 0.179969, 0.179581, 0.179506, 0.180361, 0.181092, 0.180829, 0.180687, 0.180573, 0.179959, 0.180166, 0.181677, 0.183382, 0.184838, 0.186631, 0.188554, 0.189928, 0.190682, 0.191019, 0.191095, 0.191097, 0.191188, 0.191064, 0.190086, 0.188549, 0.187507, 0.187196, 0.187148, 0.187073, 0.186816, 0.186595, 0.186796, 0.187262, 0.187722, 0.188118, 0.188436, 0.188636, 0.188890, 0.189239, 0.189658, 0.189801, 0.188094, 0.182279, 0.170947, 0.158573, 0.154674, 0.156875, 0.155792, 0.152206, 0.149426, 0.146959, 0.143682, 0.139545, 0.135291, 0.131761, 0.129839, 0.129477, 0.129439, 0.128483, 0.127254, 0.126873, 0.127118, 0.127673, 0.128041, 0.126943, 0.125198, 0.126209, 0.127653, 0.126314, 0.126226, 0.129637, 0.134048, 0.137028, 0.137763, 0.136705, 0.135142, 0.133923, 0.132273, 0.128599, 0.122585, 0.116631, 0.114177, 0.117630, 0.126827, 0.137731, 0.145038, 0.147785, 0.148873, 0.150689, 0.153805, 0.155392, 0.155379, 0.157307, 0.160660, 0.163476, 0.165235, 0.165816, 0.165551, 0.165079, 0.164669, 0.164322, 0.163996, 0.163699, 0.163280, 0.162992, 0.163321, 0.163962, 0.164489, 0.164896, 0.165143, 0.165323, 0.165675, 0.166161, 0.166476, 0.166496, 0.166504, 0.166681, 0.166564, 0.166110, 0.166017, 0.166191, 0.166239, 0.166224, 0.166260, 0.166280, 0.166274, 0.166138, 0.165699, 0.165452, 0.165393, 0.163929, 0.161315, 0.160167, 0.160283, 0.159668, 0.158497, 0.157504, 0.156776, 0.156539, 0.156613, 0.156343, 0.155509, 0.154582, 0.154219, 0.154711, 0.155731, 0.156068, 0.153718, 0.147235, 0.138187, 0.131439, 0.129214, 0.128943, 0.127507, 0.123694, 0.122869, 0.127763, 0.132401, 0.134679, 0.136602, 0.139040, 0.140603, 0.140410, 0.141568, 0.145122, 0.147583, 0.148083, 0.148053, 0.148218, 0.148274, 0.147929, 0.147901, 0.148582, 0.148680, 0.147053, 0.144480, 0.141983, 0.139979, 0.138838, 0.138563, 0.138589, 0.138198, 0.137549, 0.137342, 0.137324, 0.137094, 0.137016, 0.137261, 0.137705, 0.138311, 0.138915, 0.139345, 0.139627, 0.139857, 0.140052, 0.140215, 0.140346, 0.140420, 0.140288, 0.139199, 0.136444, 0.133268, 0.131784, 0.131543, 0.131434, 0.131872, 0.132610, 0.133303, 0.134098, 0.134586, 0.133582, 0.132683, 0.133033, 0.131969, 0.130922, 0.131350, 0.131236, 0.130277, 0.129501, 0.129492, 0.128820, 0.126260, 0.124294, 0.125291, 0.127173, 0.126732, 0.124896, 0.124716, 0.124073, 0.120686, 0.117801, 0.117172, 0.117170, 0.117044, 0.116948, 0.116716, 0.115820, 0.114069, 0.112761, 0.112748, 0.112709, 0.112269, 0.112130, 0.112325, 0.112663, 0.113009, 0.113241, 0.113400, 0.113589, 0.113847, 0.114169, 0.114474, 0.114547, 0.114201, 0.113550, 0.112859, 0.112293, 0.111895, 0.111646, 0.111481, 0.111332, 0.111185, 0.111100, 0.111089, 0.111096, 0.111061, 0.110756, 0.109929, 0.109392, 0.109408, 0.108888, 0.107996, 0.107014, 0.105482, 0.103780, 0.103527, 0.102665, 0.099753, 0.098830, 0.098540, 0.096723, 0.095544, 0.095270, 0.095233, 0.095225, 0.094621, 0.091586, 0.084107, 0.071757, 0.056769, 0.044910, 0.041292, 0.041316, 0.039038, 0.036390, 0.035864, 0.035994, 0.036139, 0.035992, 0.035189, 0.034212, 0.033684, 0.033809, 0.034141, 0.034068, 0.033944, 0.034211, 0.034399, 0.034019, 0.033053, 0.031783, 0.030670, 0.029966, 0.029510, 0.028902, 0.027832, 0.026302, 0.024711, 0.023675, 0.023391, 0.023571, 0.023689, 0.023383, 0.022995, 0.022667, 0.022429, 0.022838, 0.023220, 0.023181, 0.023610, 0.024380, 0.024556, 0.024614, 0.026034, 0.028021, 0.028799, 0.028727, 0.029366, 0.031636, 0.034742, 0.036564, 0.036649, 0.037667, 0.041626, 0.047172, 0.051871, 0.054408, 0.055176, 0.055232, 0.055336, 0.056388, 0.059235, 0.062836, 0.065174, 0.065941, 0.066013, 0.065986, 0.066036, 0.066135, 0.066141, 0.066095, 0.066070, 0.066039, 0.066016, 0.066008, 0.065981, 0.065896, 0.065741, 0.065559, 0.065399, 0.065268, 0.065163, 0.065124, 0.065233, 0.065495, 0.065869, 0.066413, 0.067207, 0.068229, 0.069336, 0.070134, 0.070258, 0.070371, 0.071076, 0.071580, 0.071569, 0.071483, 0.071534, 0.071606, 0.071637, 0.071831, 0.072955, 0.076112, 0.079266, 0.079911, 0.079814, 0.081379, 0.083525, 0.084341, 0.083994, 0.083714, 0.083772, 0.083662, 0.083252, 0.083613, 0.086057, 0.088498, 0.088320, 0.087112, 0.086074, 0.084299, 0.082706, 0.082277, 0.082341, 0.082266, 0.081527, 0.079476, 0.076677, 0.074751, 0.074139, 0.074149, 0.074297, 0.074426, 0.074510, 0.074631, 0.074698, 0.074661, 0.074916, 0.075725, 0.076371, 0.076426, 0.076495, 0.076675, 0.076707, 0.076716, 0.076850, 0.077010, 0.076975, 0.076794, 0.077038, 0.077948, 0.078696, 0.078446, 0.077454, 0.076474, 0.075995, 0.076082, 0.076032, 0.075356, 0.074799, 0.074678, 0.074730, 0.074816, 0.074813, 0.074805, 0.074724, 0.073783, 0.070874, 0.067726, 0.066991, 0.066922, 0.065008, 0.062238, 0.060543, 0.060109, 0.060236, 0.061026, 0.062836, 0.064426, 0.063472, 0.059293, 0.055537, 0.055143, 0.054209, 0.051220, 0.049562, 0.049491, 0.049347, 0.049177, 0.049165, 0.049138, 0.049029, 0.048878, 0.048709, 0.048554, 0.048404, 0.048183, 0.047876, 0.047570, 0.047321, 0.047222, 0.047242, 0.046777, 0.045400, 0.044477, 0.045436, 0.047351, 0.048993, 0.050092, 0.050829, 0.051567, 0.052510, 0.052967, 0.053018, 0.054977, 0.059273, 0.062735, 0.063854, 0.063922, 0.063826, 0.063561, 0.063307, 0.063225, 0.063241, 0.063289, 0.063368, 0.063387, 0.063294, 0.063222, 0.063199, 0.063154, 0.062892, 0.062363, 0.061935, 0.061748, 0.061651, 0.061720, 0.062106, 0.062484, 0.062517, 0.062723, 0.063341, 0.063212, 0.062115, 0.061349, 0.061234, 0.061260, 0.061258, 0.061305, 0.061321, 0.061337, 0.061552, 0.061827, 0.061975, 0.062026, 0.062028, 0.062026, 0.062125, 0.062376, 0.062686, 0.062934, 0.063112, 0.063239, 0.063263, 0.063317, 0.063743, 0.064404, 0.064827, 0.064901, 0.064753, 0.064097, 0.062662, 0.061163, 0.060222, 0.059569, 0.058716, 0.057590, 0.057077, 0.057017, 0.054411, 0.047695, 0.040793, 0.038149, 0.038029, 0.037912, 0.037823, 0.037882, 0.037878, 0.037886, 0.038056, 0.038242, 0.038273, 0.038248, 0.038241, 0.038190, 0.038034, 0.037865, 0.037827, 0.037847, 0.038102, 0.038765, 0.039266, 0.039028, 0.038585, 0.038669, 0.038206, 0.035725, 0.032594, 0.031851, 0.033649, 0.035577, 0.036431, 0.036562, 0.036480, 0.036471, 0.036744, 0.037281, 0.038028, 0.038879, 0.039586, 0.039986, 0.040070, 0.039882, 0.039478, 0.039005, 0.038648, 0.038439, 0.038404, 0.038922, 0.040618, 0.043544, 0.046867, 0.049565, 0.051198, 0.051744, 0.051614, 0.052417, 0.056278, 0.061960, 0.065375, 0.066011, 0.066011, 0.066025, 0.065999, 0.065967, 0.065962, 0.065963, 0.065955, 0.065991, 0.066008, 0.065993, 0.066070, 0.066214, 0.066243, 0.066093, 0.065967, 0.066081, 0.066419, 0.066880, 0.067373, 0.067788, 0.068057, 0.068239, 0.068388, 0.068349, 0.068001, 0.067576, 0.067293, 0.067289, 0.067843, 0.068950, 0.070027, 0.070512, 0.070080, 0.068875, 0.068092, 0.069462, 0.073147, 0.076349, 0.077320, 0.077207, 0.076779, 0.076189, 0.075641, 0.075232, 0.075047, 0.075120, 0.075444, 0.075879, 0.076122, 0.076143, 0.076099, 0.076013, 0.075736, 0.074827, 0.072810, 0.070112, 0.067838, 0.066548, 0.066113, 0.066111, 0.065423, 0.062154, 0.056650, 0.053090, 0.052719, 0.052886, 0.052881, 0.052884, 0.052915, 0.053116, 0.053562, 0.054087, 0.054459, 0.054629, 0.054647, 0.054570, 0.054517, 0.054627, 0.054927, 0.055229, 0.055272, 0.054978, 0.054449, 0.053850, 0.053345, 0.053014, 0.052782, 0.052822, 0.053520, 0.054686, 0.055706, 0.056254, 0.056275, 0.055587, 0.054280, 0.053150, 0.052631, 0.052439, 0.052463, 0.052171, 0.049676, 0.044544, 0.040468, 0.039865, 0.040099, 0.040133, 0.041273, 0.043904, 0.046290, 0.047289, 0.047429, 0.047104, 0.046510, 0.046100, 0.046001, 0.046046, 0.046208, 0.046529, 0.047056, 0.047736, 0.048288, 0.048571, 0.048718, 0.048845, 0.048918, 0.048917, 0.048969, 0.048962, 0.048682, 0.048334, 0.048182, 0.048169, 0.048161, 0.048102, 0.047899, 0.047426, 0.046801, 0.046312, 0.046049, 0.045988, 0.046346, 0.047498, 0.048997, 0.049741, 0.049635, 0.049329, 0.049144, 0.049079, 0.049059, 0.049047, 0.049075, 0.049163, 0.048936, 0.048016, 0.046920, 0.046391, 0.046550, 0.047018, 0.047370, 0.047400, 0.047110, 0.046834, 0.046878, 0.046951, 0.046862, 0.046923, 0.046512, 0.045280, 0.044261, 0.043982, 0.044008, 0.043163, 0.040811, 0.038527, 0.037681, 0.037458, 0.037222, 0.037106, 0.037182, 0.037311, 0.037350, 0.037216, 0.036837, 0.036130, 0.035221, 0.034504, 0.034091, 0.033971, 0.034537, 0.035901, 0.037676, 0.039301, 0.040506, 0.041175, 0.041379, 0.041416, 0.041428, 0.041438, 0.041444, 0.041409, 0.041405, 0.041676, 0.042293, 0.042990, 0.043523, 0.043644, 0.043025, 0.042080, 0.041868, 0.042306, 0.042626, 0.042665, 0.042660, 0.042737, 0.042820, 0.042877, 0.043011, 0.043348, 0.043548, 0.043260, 0.043315, 0.044433, 0.045381, 0.045378, 0.045196, 0.045411, 0.046151, 0.047553, 0.049342, 0.050651, 0.051125, 0.051128, 0.050982, 0.050877, 0.050909, 0.051088, 0.051263, 0.051215, 0.050942, 0.050629, 0.050505, 0.050532, 0.050504, 0.050421, 0.050359, 0.050319, 0.050277, 0.050244, 0.050225, 0.050201, 0.050162, 0.050162, 0.050095, 0.049587, 0.048547, 0.047199, 0.045781, 0.044528, 0.043717, 0.043397, 0.043326, 0.043314, 0.043306, 0.043307, 0.043354, 0.043399, 0.043183, 0.042580, 0.041938, 0.041510, 0.041072, 0.040340, 0.039290, 0.038147, 0.037260, 0.036934, 0.037147, 0.037362, 0.037311, 0.037204, 0.037076, 0.036812, 0.036392, 0.036170, 0.036161, 0.035247, 0.032932, 0.030954, 0.030497, 0.030549, 0.030212, 0.029167, 0.027146, 0.024189, 0.021524, 0.020305, 0.019968, 0.019906, 0.020074, 0.020218, 0.019827, 0.019103, 0.018857, 0.019272, 0.020027, 0.020746, 0.021082, 0.021052, 0.021433, 0.022434, 0.023225, 0.023679, 0.024112, 0.024765, 0.025538, 0.025903, 0.025887, 0.026045, 0.026195, 0.026173, 0.026295, 0.026362, 0.026362, 0.026412, 0.026414, 0.026415, 0.026463, 0.026965, 0.028295, 0.030266, 0.032312, 0.033896, 0.034856, 0.035327, 0.035534, 0.035617, 0.035516, 0.035804, 0.036620, 0.037089, 0.037092, 0.036861, 0.036833, 0.037543, 0.039041, 0.040414, 0.040941, 0.041033, 0.041082, 0.041133, 0.041112, 0.041272, 0.041516, 0.041473, 0.041457, 0.041590, 0.041560, 0.041216, 0.040848, 0.040681, 0.040649, 0.040648, 0.040693, 0.040818, 0.040884, 0.040817, 0.040711, 0.040589, 0.040375, 0.040068, 0.039783, 0.039695, 0.039803, 0.039632, 0.039031, 0.038570, 0.038376, 0.038173, 0.037769, 0.037240, 0.036984, 0.037113, 0.037255, 0.037291, 0.037317, 0.037218, 0.037193, 0.037248, 0.037235, 0.037233, 0.037255, 0.037260, 0.036932, 0.035935, 0.034255, 0.032262, 0.030597, 0.029656, 0.029280, 0.029099, 0.029068, 0.029421, 0.029402, 0.028641, 0.028130, 0.028011, 0.027941, 0.027685, 0.026731, 0.024712, 0.022830, 0.022466, 0.022890, 0.023177, 0.023173, 0.023158, 0.022612, 0.021738, 0.021548, 0.021511, 0.021258, 0.021107, 0.021209, 0.021934, 0.023309, 0.024655, 0.025700, 0.026312, 0.026291, 0.026019, 0.026038, 0.026143, 0.026113, 0.026099, 0.026664, 0.028261, 0.029879, 0.030927, 0.031786, 0.032614, 0.033033, 0.033006, 0.032935, 0.032998, 0.033139, 0.033275, 0.033292, 0.033253, 0.033542, 0.034142, 0.034668, 0.034848, 0.034783, 0.035023, 0.035539, 0.035699, 0.035658, 0.035666, 0.035652, 0.035630, 0.035609, 0.035555, 0.035442, 0.035241, 0.034965, 0.034665, 0.034353, 0.034051, 0.033884, 0.033860, 0.033842, 0.033857, 0.033930, 0.033983, 0.033906, 0.033638, 0.033230, 0.032862, 0.032673, 0.032642, 0.032638, 0.032558, 0.032479, 0.032475, 0.032476, 0.032475, 0.032476, 0.032502, 0.032191, 0.031291, 0.030251, 0.029388, 0.028845, 0.028719, 0.028756, 0.028693, 0.028669, 0.028670, 0.028599, 0.027949, 0.026209, 0.024268, 0.022838, 0.021558, 0.020287, 0.019521, 0.019383, 0.019372, 0.019230, 0.019023, 0.018837, 0.018627, 0.018184, 0.017323, 0.016079, 0.014909, 0.014396, 0.014404, 0.013784, 0.012448, 0.011908, 0.011987, 0.011919, 0.011876, 0.011902, 0.011868, 0.011828, 0.011778, 0.011739, 0.011808, 0.011936, 0.011965, 0.011969, 0.011995, 0.011920, 0.011905, 0.011857, 0.011629, 0.011323, 0.011094, 0.011048, 0.011350, 0.011866, 0.012533, 0.013468, 0.014401, 0.014911, 0.014921, 0.015083, 0.015744, 0.016521, 0.017264, 0.017862, 0.018355, 0.018911, 0.019297, 0.019413, 0.019283, 0.019049, 0.018991, 0.018989, 0.018887, 0.018850, 0.018851, 0.018853, 0.018793, 0.018743, 0.018874, 0.019022, 0.019035, 0.019017, 0.019069, 0.019188, 0.019200, 0.019166, 0.019154, 0.019288, 0.019958, 0.021301, 0.022653, 0.023333, 0.023420, 0.023444, 0.023536, 0.023553, 0.023555, 0.023603, 0.023775, 0.023926, 0.023920, 0.023944, 0.024000, 0.024067, 0.024190, 0.024365, 0.024491, 0.024554, 0.024561, 0.024482, 0.024424, 0.024420, 0.024431, 0.024461, 0.024483, 0.024496, 0.024506, 0.024383, 0.024051, 0.023565, 0.022995, 0.022442, 0.022120, 0.022114, 0.022111, 0.021852, 0.021372, 0.020781, 0.020140, 0.019483, 0.018912, 0.018550, 0.018400, 0.018391, 0.018389, 0.018459, 0.018649, 0.018744, 0.018750, 0.018750, 0.018746, 0.018726, 0.018615, 0.018354, 0.018199, 0.018216, 0.018218, 0.018165, 0.018039, 0.018024, 0.018024, 0.017959, 0.017751, 0.017002, 0.015327, 0.013279, 0.012115, 0.012077, 0.012153, 0.011983, 0.011898, 0.011897, 0.011723, 0.011297, 0.010984, 0.010970, 0.010913, 0.010824, 0.010766, 0.010532, 0.010049, 0.009658, 0.009520, 0.009478, 0.009482, 0.009651, 0.010030, 0.010281, 0.010270, 0.010193, 0.010140, 0.010096, 0.010042, 0.010004, 0.010009, 0.010033, 0.010055, 0.010178, 0.010259, 0.009954, 0.009504, 0.009312, 0.009358, 0.009391, 0.009258, 0.009062, 0.008956, 0.008951, 0.008947, 0.008958, 0.008787, 0.008364, 0.008223, 0.008360, 0.008437, 0.008447, 0.008485, 0.008741, 0.009176, 0.009428, 0.009541, 0.009661, 0.009692, 0.009696, 0.009683, 0.009690, 0.009701, 0.009672, 0.009639, 0.009621, 0.009620, 0.009569, 0.009408, 0.009238, 0.009164, 0.009204, 0.009294, 0.009362, 0.009423, 0.009487, 0.009555, 0.009606, 0.009569, 0.009492, 0.009498, 0.009517, 0.009510, 0.009560, 0.009636, 0.009688, 0.009896, 0.011226, 0.013822, 0.015985, 0.017145, 0.017802, 0.018379, 0.018987, 0.019510, 0.019906, 0.020256, 0.020516, 0.020572, 0.020532, 0.020533, 0.020526, 0.020512, 0.020537, 0.020672, 0.020943, 0.021258, 0.021498, 0.021666, 0.021840, 0.022022, 0.022110, 0.022125, 0.022103, 0.022065, 0.022061, 0.022111, 0.022168, 0.022112, 0.021958, 0.021850, 0.021803, 0.021822, 0.021914, 0.021961, 0.021963, 0.021972, 0.022073, 0.022247, 0.022393, 0.022454, 0.022445, 0.022434, 0.022454, 0.022478, 0.022484, 0.022468, 0.022450, 0.022494, 0.022553, 0.022543, 0.022512, 0.022510, 0.022532, 0.022539, 0.022499, 0.022446, 0.022396, 0.022356, 0.022352, 0.022363, 0.022219, 0.021406, 0.019685, 0.017939, 0.016834, 0.016138, 0.015478, 0.014735, 0.014066, 0.013544, 0.013037, 0.012568, 0.012366, 0.012356, 0.012355, 0.012346, 0.012374, 0.012407, 0.012213, 0.011732, 0.011160, 0.010752, 0.010501, 0.010216, 0.009900, 0.009746, 0.009695, 0.009675, 0.009634, 0.009580, 0.009482, 0.009324, 0.009207, 0.009137, 0.009081, 0.009030, 0.008850, 0.008598, 0.008521, 0.008532, 0.008481, 0.008208, 0.007719, 0.007432, 0.007594, 0.008109, 0.008761, 0.009362, 0.009844, 0.010083, 0.010083, 0.010182, 0.010523, 0.011114, 0.011940, 0.013084, 0.014836, 0.016801, 0.018002, 0.018316, 0.018321, 0.018361, 0.018463, 0.018530, 0.018513, 0.018488, 0.018485, 0.018503, 0.018523, 0.018521, 0.018543, 0.018553, 0.018553, 0.018545, 0.018502, 0.018476, 0.018484, 0.018484, 0.018480, 0.018478, 0.018480, 0.018451, 0.018431, 0.018705, 0.019469, 0.020449, 0.021172, 0.021514, 0.021623, 0.021626, 0.021611, 0.021611, 0.021617, 0.021730, 0.022227, 0.023355, 0.024928, 0.026528, 0.027849, 0.028683, 0.028957, 0.028962, 0.029003, 0.029055, 0.029111, 0.029225, 0.029385, 0.029528, 0.029563, 0.029471, 0.029310, 0.029110, 0.028906, 0.028790, 0.028921, 0.029218, 0.029365, 0.029271, 0.029017, 0.028677, 0.028175, 0.027323, 0.026230, 0.025452, 0.025214, 0.025235, 0.025338, 0.025634, 0.026314, 0.027264, 0.028109, 0.028686, 0.029120, 0.029639, 0.030362, 0.031034, 0.031412, 0.031533, 0.031524, 0.031660, 0.032793, 0.036077, 0.040029, 0.041476, 0.041496, 0.042559, 0.043221, 0.043197, 0.043099, 0.042802, 0.042661, 0.042304, 0.042815, 0.045591, 0.050834, 0.058226, 0.065213, 0.068342, 0.068482, 0.068755, 0.069474, 0.069828, 0.069652, 0.069170, 0.068873, 0.068801, 0.068842, 0.069235, 0.069745, 0.070041, 0.070209, 0.070379, 0.070498, 0.070497, 0.070498, 0.070529, 0.070529, 0.070623, 0.071008, 0.071646, 0.072435, 0.073339, 0.074302, 0.075332, 0.076554, 0.078096, 0.079880, 0.081450, 0.082256, 0.082357, 0.082457, 0.083109, 0.084130, 0.085208, 0.086657, 0.088882, 0.091237, 0.092754, 0.093514, 0.094008, 0.094461, 0.094792, 0.094970, 0.095103, 0.095180, 0.094866, 0.093666, 0.092114, 0.091644, 0.091734, 0.091252, 0.090944, 0.090944, 0.090933, 0.090932, 0.090790, 0.090799, 0.090529, 0.089218, 0.086388, 0.081654, 0.076427, 0.074237, 0.074787, 0.074930, 0.074413, 0.074342, 0.075154, 0.076214, 0.076434, 0.076589, 0.078284, 0.080201, 0.080613, 0.080343, 0.080301, 0.080222, 0.080081, 0.080053, 0.080047, 0.080023, 0.080040, 0.079970, 0.079606, 0.078964, 0.078173, 0.077337, 0.076455, 0.075441, 0.074206, 0.072608, 0.070626, 0.068794, 0.067868, 0.067782, 0.067657, 0.066806, 0.065372, 0.063653, 0.061414, 0.058953, 0.057841, 0.058522, 0.059341, 0.059311, 0.058835, 0.058823, 0.059753, 0.060915, 0.061011, 0.061412, 0.064852, 0.069667, 0.073316, 0.075969, 0.078436, 0.080861, 0.082701, 0.083343, 0.083316, 0.083914, 0.085140, 0.086020, 0.086377, 0.086611, 0.086890, 0.086938, 0.086438, 0.086030, 0.086076, 0.085761, 0.085361, 0.085910, 0.086843, 0.087525, 0.087618, 0.086247, 0.084442, 0.083916, 0.083939, 0.083970, 0.084567, 0.085361, 0.085782, 0.085901, 0.085944, 0.086030, 0.086321, 0.086908, 0.087610, 0.087954, 0.087880, 0.088262, 0.089239, 0.089856, 0.089891, 0.090029, 0.090765, 0.091854, 0.092613, 0.092910, 0.093201, 0.094308, 0.096986, 0.099605, 0.099829, 0.098178, 0.096755, 0.097032, 0.099465, 0.103623, 0.108146, 0.111158, 0.112061, 0.112226, 0.111959, 0.110003, 0.107015, 0.104991, 0.105261, 0.107188, 0.108621, 0.108832, 0.108693, 0.108695, 0.108599, 0.108736, 0.109804, 0.111722, 0.113713, 0.115020, 0.115638, 0.115982, 0.115952, 0.115576, 0.115536, 0.115552, 0.114777, 0.114103, 0.114941, 0.117311, 0.120088, 0.122049, 0.123058, 0.123610, 0.123735, 0.123374, 0.122960, 0.122831, 0.122795, 0.122886, 0.124518, 0.129678, 0.137303, 0.143423, 0.146294, 0.147090, 0.146874, 0.146315, 0.146120, 0.146341, 0.146477, 0.146158, 0.145514, 0.145034, 0.144854, 0.144720, 0.144227, 0.142928, 0.141656, 0.141590, 0.142154, 0.142302, 0.141523, 0.139468, 0.136146, 0.132330, 0.129343, 0.127943, 0.127683, 0.127791, 0.127871, 0.127824, 0.127484, 0.126344, 0.124638, 0.123121, 0.122013, 0.121719, 0.122083, 0.122285, 0.122027, 0.121619, 0.121354, 0.121289, 0.121460, 0.121731, 0.121832, 0.121722, 0.122445, 0.126452, 0.133430, 0.138604, 0.139834, 0.138800, 0.136642, 0.134098, 0.132120, 0.131029, 0.130541, 0.130316, 0.130199, 0.130064, 0.129920, 0.129901, 0.129799, 0.128172, 0.122735, 0.113721, 0.105390, 0.101126, 0.100045, 0.100028, 0.099977, 0.099749, 0.099559, 0.099454, 0.099438, 0.099506, 0.099531, 0.099531, 0.099578, 0.099251, 0.098943, 0.099188, 0.099203, 0.098620, 0.097877, 0.097360, 0.097234, 0.097327, 0.097242, 0.097205, 0.097794, 0.098469, 0.098453, 0.098421, 0.098782, 0.098823, 0.097935, 0.096061, 0.094400, 0.094132, 0.094489, 0.094677, 0.094686, 0.094225, 0.092783, 0.090390, 0.087809, 0.085778, 0.084489, 0.083892, 0.083879, 0.082848, 0.077152, 0.066014, 0.056341, 0.053551, 0.053573, 0.053549, 0.054074, 0.055017, 0.055473, 0.055615, 0.055895, 0.056151, 0.056157, 0.056593, 0.058718, 0.063137, 0.069340, 0.075662, 0.080142, 0.082118, 0.082525, 0.082472, 0.082400, 0.082395, 0.082407, 0.083623, 0.088988, 0.098636, 0.109328, 0.118250, 0.124215, 0.127498, 0.129552, 0.131039, 0.131748, 0.131783, 0.131657, 0.131670, 0.131681, 0.131650, 0.131598, 0.131591, 0.131552, 0.131423, 0.131541, 0.132107, 0.132644, 0.132930, 0.133213, 0.133520, 0.133887, 0.134503, 0.135319, 0.135935, 0.136201, 0.136272, 0.136232, 0.136163, 0.136223, 0.136373, 0.136452, 0.136523, 0.136683, 0.136848, 0.136902, 0.136549, 0.135607, 0.134563, 0.133913, 0.133712, 0.133713, 0.133572, 0.133402, 0.133437, 0.133404, 0.133350, 0.133982, 0.135454, 0.136679, 0.136611, 0.134967, 0.131950, 0.128446, 0.126034, 0.125780, 0.126966, 0.127906, 0.128040, 0.128100, 0.128367, 0.127804, 0.124309, 0.116975, 0.107269, 0.097932, 0.091403, 0.087890, 0.085331, 0.082560, 0.080197, 0.079228, 0.079174, 0.079175, 0.079447, 0.080017, 0.080426, 0.080511, 0.080429, 0.079925, 0.078951, 0.078113, 0.077996, 0.079020, 0.081114, 0.083220, 0.084102, 0.083508, 0.082069, 0.080584, 0.079357, 0.078459, 0.078055, 0.078045, 0.077940, 0.077558, 0.077179, 0.076890, 0.076594, 0.076308, 0.076173, 0.076171, 0.076095, 0.075910, 0.075861, 0.076075, 0.076311, 0.076303, 0.075962, 0.075492, 0.075354, 0.075246, 0.073940, 0.071361, 0.069150, 0.068384, 0.068743, 0.069784, 0.071019, 0.071127, 0.069193, 0.067113, 0.068152, 0.072183, 0.075708, 0.076920, 0.076725, 0.076225, 0.075772, 0.075317, 0.074509, 0.073064, 0.071532, 0.070936, 0.071012, 0.071135, 0.071449, 0.071916, 0.072216, 0.072110, 0.071632, 0.071300, 0.071370, 0.071508, 0.071544, 0.071479, 0.071186, 0.070236, 0.068052, 0.064641, 0.061186, 0.059155, 0.058600, 0.058583, 0.058595, 0.058586, 0.058533, 0.058505, 0.058647, 0.058905, 0.059112, 0.059219, 0.059358, 0.059721, 0.060284, 0.060628, 0.060671, 0.060664, 0.060617, 0.060434, 0.060160, 0.059998, 0.060010, 0.060073, 0.060095, 0.060094, 0.060081, 0.060097, 0.060141, 0.059949, 0.059349, 0.058400, 0.057080, 0.055517, 0.054555, 0.054572, 0.053853, 0.050464, 0.044339, 0.037882, 0.034254, 0.033340, 0.033175, 0.033018, 0.032850, 0.032790, 0.032782, 0.032789, 0.032809, 0.032659, 0.032022, 0.030919, 0.029768, 0.028936, 0.028406, 0.028000, 0.027597, 0.027194, 0.026885, 0.026688, 0.026588, 0.026539, 0.026465, 0.026393, 0.026920, 0.028516, 0.029932, 0.030158, 0.030160, 0.030696, 0.031184, 0.031246, 0.031052, 0.030738, 0.030415, 0.030417, 0.031334, 0.033186, 0.034572, 0.034332, 0.033722, 0.034792, 0.037272, 0.039331, 0.040374, 0.040961, 0.041625, 0.042496, 0.043282, 0.043788, 0.044032, 0.044160, 0.044236, 0.044186, 0.043992, 0.043776, 0.043659, 0.043552, 0.044061, 0.047139, 0.053479, 0.060419, 0.065208, 0.067469, 0.068083, 0.068072, 0.068288, 0.068851, 0.069353, 0.069638, 0.069769, 0.069805, 0.069801, 0.069897, 0.070242, 0.070576, 0.070603, 0.070737, 0.071133, 0.071471, 0.071725, 0.072028, 0.072375, 0.072620, 0.072738, 0.072792, 0.072843, 0.072937, 0.073059, 0.072964, 0.072432, 0.071891, 0.071796, 0.071785, 0.071551, 0.071348, 0.071356, 0.071520, 0.071886, 0.072507, 0.072896, 0.072429, 0.071560, 0.071021, 0.070863, 0.070862, 0.070340, 0.069088, 0.067920, 0.067288, 0.066932, 0.066476, 0.065785, 0.065202, 0.065028, 0.065070, 0.065056, 0.064960, 0.064785, 0.064556, 0.064276, 0.064248, 0.065115, 0.065831, 0.064071, 0.058866, 0.051534, 0.045343, 0.043141, 0.044063, 0.044889, 0.044603, 0.043712, 0.042951, 0.042590, 0.042440, 0.042431, 0.042567, 0.042673, 0.042325, 0.041822, 0.041772, 0.041566, 0.040904, 0.040336, 0.039941, 0.039456, 0.038816, 0.038315, 0.038107, 0.038251, 0.038841, 0.039828, 0.041035, 0.042197, 0.043116, 0.043829, 0.044482, 0.045155, 0.045870, 0.046528, 0.046807, 0.046561, 0.046380, 0.046351, 0.045999, 0.045899, 0.045765, 0.045184, 0.044890, 0.044894, 0.045025, 0.045424, 0.045946, 0.046408, 0.046791, 0.047209, 0.047765, 0.048480, 0.049523, 0.050959, 0.052110, 0.052498, 0.052498, 0.052560, 0.052885, 0.053166, 0.052710, 0.052316, 0.053004, 0.053633, 0.053599, 0.053661, 0.053267, 0.052150, 0.051752, 0.052192, 0.052918, 0.053394, 0.053518, 0.053625, 0.053875, 0.054056, 0.053908, 0.053722, 0.053718, 0.053878, 0.054288, 0.055158, 0.056712, 0.059048, 0.061921, 0.064761, 0.066812, 0.067750, 0.067922, 0.067741, 0.067545, 0.067580, 0.067498, 0.067006, 0.066528, 0.066583, 0.067629, 0.070048, 0.073225, 0.075727, 0.076871, 0.076813, 0.076181, 0.075840, 0.075959, 0.076161, 0.076232, 0.076218, 0.076236, 0.076175, 0.075928, 0.075611, 0.075333, 0.075161, 0.075111, 0.074959, 0.074505, 0.073647, 0.072482, 0.071632, 0.071386, 0.071379, 0.071411, 0.071530, 0.071597, 0.071347, 0.070675, 0.069791, 0.069296, 0.069293, 0.069018, 0.068490, 0.068226, 0.068125, 0.067872, 0.067427, 0.067175, 0.067258, 0.067494, 0.067584, 0.067419, 0.067427, 0.067896, 0.068419, 0.068519, 0.068204, 0.067491, 0.066249, 0.064332, 0.061630, 0.058626, 0.056280, 0.055127, 0.054743, 0.054534, 0.054152, 0.053319, 0.052557, 0.052454, 0.052489, 0.051857, 0.049857, 0.045692, 0.039880, 0.035679, 0.035461, 0.037267, 0.039069, 0.041043, 0.043730, 0.046913, 0.049058, 0.049220, 0.050957, 0.059871, 0.073556, 0.084875, 0.090780, 0.092620, 0.092750, 0.092611, 0.092580, 0.092588, 0.092640, 0.092741, 0.092837, 0.092876, 0.092799, 0.092699, 0.092888, 0.093487, 0.094037, 0.094158, 0.094165, 0.094236, 0.094219, 0.094285, 0.094654, 0.094919, 0.094838, 0.094868, 0.094821, 0.094783, 0.095323, 0.095958, 0.096391, 0.096657, 0.096670, 0.096638, 0.096709, 0.096722, 0.096796, 0.097195, 0.097732, 0.098183, 0.098449, 0.098534, 0.098542, 0.098546, 0.098536, 0.098421, 0.098260, 0.098189, 0.098215, 0.098297, 0.098432, 0.098546, 0.098556, 0.098489, 0.098125, 0.097339, 0.096508, 0.095804, 0.095232, 0.094753, 0.093985, 0.093095, 0.093027, 0.092724, 0.088313, 0.078075, 0.065901, 0.057595, 0.054607, 0.054490, 0.055215, 0.055861, 0.056052, 0.055958, 0.055767, 0.055577, 0.055518, 0.055503, 0.055197, 0.054522, 0.054275, 0.055215, 0.056673, 0.057646, 0.058126, 0.058487, 0.058437, 0.057704, 0.057123, 0.057142, 0.056964, 0.056864, 0.056635, 0.055282, 0.053784, 0.052969, 0.052478, 0.051904, 0.051246, 0.050815, 0.050760, 0.050618, 0.049825, 0.048759, 0.048079, 0.047894, 0.048015, 0.048225, 0.048395, 0.048580, 0.048886, 0.049093, 0.049003, 0.049194, 0.050186, 0.051131, 0.051311, 0.051296, 0.051262, 0.051158, 0.051243, 0.051407, 0.051428, 0.050933, 0.049465, 0.048003, 0.048818, 0.052334, 0.056157, 0.058113, 0.058357, 0.058247, 0.058276, 0.058566, 0.058781, 0.058210, 0.057772, 0.058787, 0.060312, 0.061233, 0.061605, 0.061699, 0.061707, 0.061726, 0.061722, 0.061011, 0.059272, 0.058001, 0.057752, 0.057530, 0.057242, 0.057181, 0.057383, 0.057512, 0.057468, 0.057592, 0.057859, 0.058077, 0.058270, 0.058465, 0.058566, 0.058544, 0.058507, 0.058512, 0.058555, 0.058609, 0.058657, 0.058657, 0.058567, 0.058377, 0.058102, 0.057856, 0.057684, 0.057533, 0.057426, 0.057415, 0.057592, 0.057894, 0.057781, 0.056936, 0.056369, 0.057136, 0.058288, 0.058608, 0.058560, 0.058819, 0.058973, 0.058930, 0.059502, 0.061033, 0.062530, 0.062704, 0.060510, 0.056063, 0.052544, 0.055004, 0.063217, 0.070977, 0.074366, 0.074666, 0.074561, 0.074554, 0.074044, 0.073447, 0.073497, 0.074514, 0.076322, 0.077744, 0.078037, 0.077940, 0.078016, 0.078208, 0.078069, 0.077585, 0.077309, 0.077264, 0.077265, 0.077142, 0.077026, 0.077058, 0.077128, 0.077513, 0.079007, 0.082272, 0.085767, 0.086953, 0.086926, 0.086965, 0.087058, 0.087628, 0.087712, 0.087873, 0.088163, 0.088086, 0.088144, 0.088133, 0.088327, 0.088650, 0.088709, 0.088664, 0.088501, 0.088557, 0.088683, 0.088606, 0.090124, 0.092548, 0.093173, 0.092610, 0.092401, 0.092501, 0.092743, 0.093344, 0.093963, 0.093728, 0.092730, 0.091757, 0.090921, 0.090497, 0.090593, 0.090387, 0.088364, 0.083788, 0.078968, 0.076685, 0.076604, 0.077403, 0.079099, 0.082295, 0.086374, 0.089832, 0.092046, 0.093485, 0.095253, 0.097711, 0.099776, 0.100661, 0.100614, 0.100927, 0.103029, 0.106640, 0.111037, 0.116977, 0.125458, 0.134356, 0.139362, 0.140064, 0.139860, 0.139648, 0.138104, 0.135933, 0.135123, 0.135214, 0.135327, 0.135350, 0.134992, 0.134917, 0.134795, 0.134692, 0.135274, 0.136862, 0.140353, 0.146117, 0.154064, 0.163376, 0.173002, 0.182807, 0.192165, 0.199351, 0.203148, 0.203747, 0.202891, 0.202297, 0.203408, 0.212995, 0.237777, 0.268464, 0.289576, 0.297038, 0.297550, 0.298048, 0.299270, 0.299626, 0.299702, 0.300716, 0.302279, 0.303156, 0.303118, 0.302843, 0.303181, 0.305177, 0.308547, 0.311036, 0.311453, 0.310728, 0.309903, 0.309119, 0.308227, 0.307698, 0.307699, 0.307780, 0.307853, 0.308118, 0.308450, 0.308686, 0.309038, 0.309640, 0.310433, 0.311464, 0.312961, 0.315091, 0.317392, 0.318981, 0.319828, 0.320191, 0.320192, 0.320360, 0.320985, 0.322389, 0.325333, 0.329194, 0.331304, 0.331478, 0.331555, 0.331514, 0.330836, 0.329386, 0.326832, 0.323658, 0.320851, 0.317929, 0.313501, 0.307808, 0.303828, 0.303901, 0.305701, 0.306296, 0.306294, 0.305555, 0.299065, 0.281453, 0.255618, 0.232682, 0.222979, 0.226961, 0.236520, 0.245352, 0.251147, 0.252924, 0.251739, 0.249989, 0.249086, 0.248958, 0.249282, 0.250448, 0.252775, 0.255828, 0.258211, 0.258617, 0.258058, 0.257712, 0.257504, 0.257558, 0.257231, 0.256237, 0.255344, 0.254931, 0.254851, 0.254792, 0.254298, 0.253394, 0.252927, 0.252796, 0.250046, 0.243825, 0.238337, 0.234951, 0.232763, 0.231205, 0.231317, 0.235939, 0.241447, 0.244492, 0.245526, 0.243959, 0.239604, 0.236677, 0.236733, 0.236956, 0.236939, 0.237091, 0.237175, 0.237232, 0.236533, 0.234238, 0.231443, 0.230066, 0.230324, 0.230448, 0.229171, 0.228037, 0.228782, 0.230061, 0.230821, 0.231092, 0.229247, 0.225826, 0.225000, 0.225276, 0.220566, 0.211016, 0.201377, 0.195573, 0.194302, 0.194770, 0.194756, 0.194434, 0.194262, 0.194173, 0.192157, 0.185558, 0.176876, 0.172019, 0.172406, 0.173925, 0.174071, 0.174385, 0.178350, 0.188691, 0.202035, 0.211539, 0.214571, 0.214325, 0.214163, 0.214002, 0.213008, 0.210500, 0.206385, 0.203597, 0.203764, 0.204283, 0.204948, 0.205917, 0.206816, 0.206390, 0.201163, 0.194264, 0.189725, 0.186802, 0.184727, 0.184184, 0.184228, 0.184036, 0.184037, 0.183951, 0.183792, 0.183749, 0.183930, 0.184035, 0.183860, 0.183667, 0.183540, 0.183445, 0.182660, 0.180466, 0.177740, 0.175463, 0.173780, 0.173117, 0.173767, 0.174965, 0.175490, 0.174750, 0.174214, 0.174662, 0.173596, 0.170862, 0.168572, 0.167207, 0.166737, 0.167414, 0.168483, 0.168955, 0.168632, 0.168464, 0.168851, 0.167239, 0.163224, 0.159803, 0.158344, 0.158085, 0.157843, 0.153513, 0.140461, 0.120448, 0.103112, 0.097585, 0.099003, 0.099335, 0.099294, 0.101206, 0.105038, 0.108945, 0.111140, 0.111678, 0.111283, 0.110432, 0.109705, 0.110041, 0.111762, 0.113835, 0.114626, 0.113920, 0.114007, 0.117848, 0.125721, 0.133735, 0.137820, 0.138617, 0.138869, 0.139467, 0.140616, 0.142300, 0.144788, 0.148253, 0.152349, 0.156681, 0.160297, 0.162283, 0.162688, 0.162364, 0.162221, 0.162443, 0.162382, 0.161663, 0.160918, 0.161185, 0.162881, 0.165269, 0.167573, 0.170124, 0.172730, 0.174152, 0.174477, 0.174391, 0.174041, 0.174212, 0.174718, 0.174708, 0.174309, 0.173941, 0.173936, 0.174378, 0.175090, 0.175656, 0.176027, 0.175953, 0.175759, 0.175883, 0.176118, 0.176236, 0.176015, 0.175972, 0.176593, 0.176906, 0.175692, 0.173629, 0.172717, 0.173572, 0.174571, 0.174360, 0.174126, 0.174282, 0.173244, 0.171503, 0.170242, 0.169929, 0.170495, 0.171098, 0.169319, 0.163247, 0.156978, 0.154094, 0.152894, 0.152589, 0.152637, 0.152001, 0.150493, 0.148107, 0.144641, 0.140464, 0.136600, 0.134553, 0.135946, 0.140091, 0.143884, 0.145813, 0.146599, 0.146836, 0.146294, 0.145727, 0.146738, 0.148844, 0.151460, 0.155176, 0.159416, 0.161976, 0.162263, 0.161920, 0.162652, 0.164131, 0.164772, 0.164781, 0.164850, 0.164880, 0.164869, 0.164726, 0.164167, 0.163316, 0.162503, 0.162128, 0.163274, 0.165992, 0.168085, 0.168512, 0.168270, 0.167814, 0.166915, 0.165874, 0.166789, 0.169678, 0.171122, 0.169845, 0.167092, 0.164953, 0.164696, 0.164658, 0.163718, 0.163535, 0.163691, 0.163435, 0.163329, 0.162825, 0.161113, 0.159709, 0.160547, 0.161341, 0.161239, 0.162029, 0.163575, 0.165781, 0.167857, 0.168434, 0.168194, 0.168216, 0.168110, 0.167286, 0.165186, 0.161693, 0.158069, 0.156824, 0.159684, 0.165844, 0.172019, 0.176075, 0.178099, 0.177979, 0.175900, 0.171668, 0.165586, 0.158660, 0.153231, 0.151296, 0.151333, 0.150493, 0.148537, 0.149420, 0.154478, 0.158726, 0.160165, 0.160466, 0.160668, 0.161055, 0.161243, 0.161202, 0.161145, 0.159932, 0.157208, 0.155416, 0.155325, 0.155263, 0.157041, 0.161114, 0.162535, 0.160512, 0.159661, 0.161020, 0.161690, 0.161620, 0.161633, 0.162238, 0.167741, 0.178387, 0.186016, 0.187545, 0.187665, 0.189993, 0.196570, 0.211872, 0.237648, 0.261435, 0.271124, 0.272127, 0.271721, 0.271136, 0.270399, 0.269347, 0.268875, 0.268914, 0.268936, 0.268937, 0.268957, 0.269077, 0.269145, 0.268942, 0.268309, 0.266838, 0.264395, 0.262005, 0.260554, 0.259610, 0.258699, 0.258199, 0.258562, 0.258857, 0.258581, 0.258328, 0.258303, 0.258285, 0.258239, 0.258138, 0.256392, 0.253278, 0.252920, 0.255927, 0.259427, 0.261855, 0.262798, 0.262742, 0.262746, 0.262909, 0.262969, 0.262935, 0.262879, 0.263812, 0.266311, 0.267420, 0.265402, 0.264448, 0.264962, 0.263615, 0.261791, 0.261470, 0.261897, 0.262415, 0.262589, 0.259490, 0.252482, 0.246855, 0.246628, 0.249189, 0.249851, 0.246047, 0.233545, 0.206758, 0.175135, 0.161736, 0.163266, 0.165037, 0.164813, 0.163684, 0.164466, 0.167507, 0.169592, 0.169586, 0.170422, 0.171926, 0.172054, 0.171820, 0.171669, 0.170728, 0.168704, 0.165712, 0.162707, 0.160748, 0.159645, 0.160230, 0.164067, 0.168119, 0.169350, 0.169270, 0.169433, 0.169974, 0.170871, 0.172025, 0.173123, 0.174177, 0.174317, 0.171685, 0.166659, 0.161591, 0.158145, 0.156824, 0.156808, 0.156730, 0.156456, 0.156680, 0.158451, 0.160989, 0.161224, 0.158258, 0.155030, 0.154338, 0.154361, 0.154352, 0.154798, 0.154594, 0.153924, 0.153668, 0.154568, 0.155102, 0.154570, 0.154261, 0.154532, 0.153479, 0.149997, 0.146291, 0.143936, 0.145457, 0.154086, 0.165018, 0.171290, 0.173695, 0.174966, 0.174823, 0.174944, 0.175730, 0.175026, 0.174794, 0.176802, 0.178541, 0.179800, 0.182766, 0.186693, 0.189023, 0.189085, 0.189562, 0.189827, 0.190638, 0.194826, 0.195992, 0.197690, 0.207674, 0.213586, 0.212924, 0.213598, 0.214375, 0.214015, 0.213301, 0.212378, 0.211461, 0.210644, 0.210176, 0.210517, 0.211275, 0.211573, 0.211604, 0.212502, 0.215506, 0.218418, 0.218911, 0.218899, 0.218528, 0.217088, 0.216052, 0.216371, 0.217687, 0.218885, 0.218950, 0.218417, 0.218993, 0.219751, 0.219771, 0.219649, 0.218778, 0.218163, 0.218900, 0.220231, 0.221026, 0.221151, 0.221010, 0.221063, 0.221295, 0.219723, 0.213715, 0.204931, 0.197235, 0.191785, 0.189067, 0.188985, 0.188548, 0.186394, 0.184300, 0.182885, 0.181266, 0.178981, 0.176290, 0.172897, 0.168564, 0.165528, 0.165297, 0.164751, 0.164417, 0.163354, 0.158181, 0.156729, 0.153185, 0.133794, 0.117344, 0.115986, 0.114646, 0.112920, 0.112774, 0.112751, 0.112772, 0.112865, 0.112839, 0.112005, 0.109637, 0.106755, 0.105034, 0.103913, 0.101144, 0.094176, 0.087493, 0.087235, 0.088194, 0.088171, 0.090686, 0.095876, 0.099422, 0.098204, 0.095533, 0.095242, 0.095244, 0.093126, 0.091983, 0.094989, 0.099825, 0.103514, 0.104230, 0.102229, 0.099854, 0.097855, 0.097985, 0.106999, 0.119791, 0.126650, 0.128163, 0.128192, 0.128311, 0.128390, 0.128431, 0.128597, 0.128481, 0.128610, 0.130473, 0.134934, 0.136310, 0.136100, 0.139557, 0.144199, 0.149036, 0.155124, 0.161269, 0.164924, 0.165892, 0.165896, 0.167000, 0.169667, 0.172178, 0.173440, 0.173896, 0.174098, 0.174204, 0.174220, 0.174220, 0.174352, 0.175826, 0.178567, 0.179580, 0.179524, 0.179797, 0.179862, 0.179860, 0.179899, 0.180146, 0.180472, 0.180706, 0.180702, 0.180359, 0.179801, 0.178897, 0.176981, 0.173721, 0.170679, 0.169731, 0.170012, 0.170084, 0.170163, 0.170358, 0.170282, 0.168932, 0.166208, 0.163800, 0.162985, 0.163115, 0.162817, 0.162667, 0.161827, 0.155425, 0.145229, 0.138976, 0.137534, 0.137503, 0.137412, 0.137398, 0.137384, 0.136988, 0.136748, 0.136508, 0.134750, 0.130140, 0.128181, 0.127839, 0.123717, 0.118189, 0.112056, 0.103436, 0.094301, 0.090782, 0.092104, 0.092569, 0.091229, 0.089783, 0.089786, 0.091410, 0.093455, 0.095314, 0.097086, 0.098652, 0.099478, 0.099415, 0.096783, 0.091624, 0.089559, 0.089649, 0.089367, 0.090289, 0.092545, 0.095380, 0.097840, 0.100646, 0.104975, 0.110322, 0.114370, 0.115285, 0.115136, 0.119505, 0.129056, 0.137588, 0.141886, 0.144013, 0.147061, 0.154187, 0.164290, 0.170208, 0.170500, 0.170847, 0.173078, 0.175460, 0.177484, 0.179343, 0.180908, 0.181983, 0.182660, 0.183171, 0.183575, 0.183679, 0.183798, 0.185207, 0.188135, 0.190831, 0.192044, 0.192245, 0.192247, 0.192500, 0.193294, 0.194222, 0.194685, 0.194783, 0.194775, 0.194761, 0.194754, 0.194363, 0.192949, 0.191510, 0.191377, 0.191068, 0.189507, 0.187554, 0.185865, 0.184544, 0.183441, 0.182408, 0.181554, 0.181103, 0.181050, 0.181090, 0.181080, 0.181236, 0.181383, 0.181244, 0.180731, 0.179609, 0.178085, 0.176478, 0.174573, 0.171825, 0.168326, 0.165489, 0.164731, 0.164672, 0.161246, 0.153268, 0.145113, 0.140397, 0.137825, 0.134294, 0.125809, 0.111970, 0.102278, 0.101232, 0.100024, 0.095462, 0.090508, 0.086264, 0.082312, 0.078796, 0.076322, 0.074890, 0.073774, 0.072733, 0.072451, 0.072278, 0.069039, 0.061171, 0.052312, 0.047710, 0.047310, 0.047686, 0.046607, 0.043131, 0.038909, 0.036934, 0.036870, 0.036922, 0.037087, 0.038016, 0.039002, 0.039343, 0.039249, 0.038814, 0.038864, 0.038393, 0.036755, 0.035440, 0.034831, 0.034623, 0.034618, 0.034657, 0.035126, 0.036223, 0.037886, 0.039397, 0.039490, 0.039311, 0.040339, 0.042531, 0.046065, 0.049684, 0.051915, 0.052989, 0.053689, 0.053722, 0.055725, 0.071829, 0.102614, 0.132167, 0.150543, 0.158429, 0.160454, 0.160468, 0.161786, 0.166447, 0.172870, 0.178249, 0.182184, 0.185913, 0.190149, 0.193547, 0.194537, 0.194511, 0.194794, 0.195096, 0.195627, 0.197416, 0.200374, 0.202752, 0.204055, 0.204719, 0.205227, 0.206203, 0.207959, 0.209830, 0.210822, 0.211105, 0.211218, 0.211325, 0.211307, 0.211268, 0.211809, 0.213025, 0.214273, 0.215047, 0.215334, 0.215389, 0.215407, 0.215477, 0.215676, 0.215901, 0.216021, 0.216085, 0.216160, 0.216259, 0.216359, 0.216385, 0.216259, 0.216039, 0.215918, 0.216044, 0.216385, 0.216653, 0.216468, 0.215783, 0.214976, 0.214427, 0.214107, 0.213882, 0.213853, 0.213323, 0.208400, 0.194993, 0.176217, 0.160763, 0.152996, 0.150879, 0.150873, 0.149446, 0.144174, 0.136335, 0.129197, 0.123593, 0.117923, 0.110974, 0.104915, 0.103018, 0.103025, 0.102493, 0.101886, 0.100688, 0.096957, 0.090625, 0.085145, 0.081870, 0.079780, 0.077904, 0.075127, 0.070129, 0.064125, 0.060590, 0.059475, 0.059565, 0.061007, 0.063121, 0.063684, 0.062110, 0.061767, 0.063864, 0.065140, 0.064832, 0.064633, 0.064768, 0.064559, 0.063863, 0.063479, 0.064154, 0.065592, 0.066743, 0.066983, 0.066674, 0.066378, 0.066246, 0.066180, 0.066001, 0.065435, 0.064429, 0.063876, 0.065186, 0.068308, 0.071453, 0.073187, 0.073531, 0.073686, 0.076157, 0.081524, 0.085737, 0.087082, 0.087385, 0.087693, 0.088157, 0.088405, 0.088417, 0.088401, 0.088407, 0.088455, 0.088577, 0.088736, 0.088859, 0.088914, 0.088921, 0.088925, 0.088951, 0.089014, 0.089097, 0.089163, 0.089208, 0.089245, 0.089250, 0.089266, 0.089415, 0.089635, 0.089721, 0.089694, 0.089608, 0.089543, 0.089590, 0.089301, 0.088044, 0.086423, 0.085924, 0.085755, 0.082945, 0.077634, 0.073932, 0.073253, 0.073315, 0.073188, 0.073148, 0.073133, 0.072806, 0.071809, 0.070270, 0.068988, 0.068494, 0.068466, 0.068434, 0.068295, 0.068148, 0.068053, 0.067920, 0.067572, 0.066696, 0.064683, 0.061229, 0.057520, 0.055292, 0.054845, 0.054995, 0.054407, 0.055399, 0.061765, 0.070016, 0.076679, 0.082483, 0.087917, 0.092251, 0.094932, 0.096352, 0.096864, 0.096841, 0.099318, 0.108987, 0.123655, 0.136890, 0.146468, 0.153134, 0.157614, 0.160442, 0.162251, 0.163431, 0.164024, 0.164164, 0.164172, 0.164160, 0.164070, 0.163942, 0.163900, 0.163982, 0.164040, 0.164039, 0.164185, 0.164247, 0.164232, 0.164456, 0.164767, 0.165079, 0.165560, 0.166164, 0.166446, 0.166421, 0.166490, 0.166633, 0.166649, 0.166732, 0.167203, 0.167837, 0.168246, 0.168428, 0.168527, 0.168612, 0.168685, 0.168729, 0.168720, 0.168649, 0.168568, 0.168535, 0.168546, 0.168561, 0.168578, 0.168615, 0.168674, 0.168732, 0.168658, 0.167768, 0.164901, 0.160446, 0.156293, 0.152995, 0.149816, 0.146464, 0.143644, 0.141872, 0.140912, 0.140560, 0.140556, 0.138743, 0.131166, 0.117336, 0.101516, 0.087101, 0.074787, 0.064858, 0.057507, 0.052156, 0.048344, 0.046352, 0.045945, 0.046070, 0.046220, 0.046320, 0.046380, 0.046360, 0.046061, 0.045850, 0.045825, 0.045209, 0.044830, 0.044783, 0.043918, 0.042711, 0.041406, 0.039313, 0.036593, 0.035178, 0.035145, 0.034672, 0.033852, 0.033728, 0.033344, 0.030934, 0.027355, 0.024756, 0.023435, 0.022677, 0.022128, 0.021800, 0.021629, 0.021406, 0.021341, 0.021608, 0.021686, 0.021311, 0.020910, 0.020623, 0.020282, 0.019889, 0.019428, 0.019035, 0.018925, 0.018898, 0.018843, 0.018735, 0.018467, 0.018063, 0.017708, 0.017614, 0.017723, 0.017747, 0.017697, 0.017630, 0.017569, 0.017614, 0.017672, 0.017701, 0.017685, 0.017504, 0.017214, 0.016874, 0.016405, 0.015780, 0.015142, 0.014647, 0.014252, 0.013869, 0.013555, 0.013419, 0.013597, 0.014103, 0.014481, 0.014450, 0.015249, 0.017815, 0.020250, 0.021132, 0.021218, 0.021212, 0.021149, 0.020976, 0.020873, 0.020899, 0.020912, 0.020915, 0.020894, 0.020849, 0.020775, 0.020703, 0.020648, 0.020545, 0.020430, 0.020312, 0.020180, 0.020117, 0.020164, 0.020046, 0.019545, 0.019060, 0.018979, 0.019048, 0.019101, 0.019132, 0.019034, 0.018955, 0.018999, 0.019037, 0.019145, 0.019235, 0.019241, 0.019254, 0.019354, 0.019445, 0.019360, 0.019232, 0.019209, 0.019236, 0.019252, 0.019256, 0.019213, 0.019144, 0.019123, 0.019122, 0.019125, 0.019164, 0.019258, 0.019303, 0.019286, 0.019244, 0.019166, 0.019049, 0.018966, 0.018930, 0.018867, 0.018703, 0.018358, 0.018053, 0.018059, 0.017418, 0.014801, 0.011229, 0.009449, 0.009302, 0.009418, 0.009391, 0.009408, 0.009547, 0.009584, 0.009609, 0.009689, 0.009753, 0.009779, 0.009784, 0.009738, 0.009656, 0.009711, 0.009798, 0.009779, 0.009545, 0.009188, 0.009135, 0.009301, 0.009393, 0.009431, 0.009386, 0.009243, 0.009151, 0.009406, 0.009860, 0.009995, 0.009905, 0.009619, 0.009309, 0.009192, 0.009182, 0.009162, 0.008984, 0.008692, 0.008573, 0.008582, 0.008636, 0.008737, 0.008913, 0.009111, 0.009172, 0.009179, 0.009338, 0.009570, 0.009613, 0.009428, 0.009169, 0.009076, 0.009171, 0.009388, 0.009682, 0.010138, 0.010715, 0.011171, 0.011395, 0.011401, 0.011354, 0.011401, 0.011494, 0.011539, 0.011562, 0.011576, 0.011586, 0.011549, 0.011446, 0.011431, 0.011391, 0.011284, 0.011254, 0.011287, 0.011313, 0.011346, 0.011398, 0.011434, 0.011453, 0.011469, 0.011429, 0.011339, 0.011284, 0.011300, 0.011308, 0.011217, 0.011141, 0.011099, 0.011072, 0.011068, 0.011064, 0.011009, 0.010730, 0.010306, 0.010174, 0.010232, 0.010280, 0.010225, 0.010189, 0.010218, 0.010202, 0.010154, 0.010118, 0.010098, 0.010081, 0.010032, 0.009883, 0.009689, 0.009525, 0.009466, 0.009460, 0.009265, 0.009020, 0.008954, 0.009082, 0.009296, 0.009405, 0.009314, 0.009110, 0.008804, 0.008275, 0.007500, 0.006775, 0.006421, 0.006379, 0.006369, 0.006301, 0.006250, 0.006503, 0.007100, 0.007538, 0.007744, 0.007977, 0.008390, 0.008796, 0.008943, 0.008932, 0.008871, 0.008752, 0.008622, 0.008507, 0.008413, 0.008394, 0.008403, 0.008379, 0.008358, 0.008383, 0.008374, 0.008343, 0.008374, 0.008429, 0.008369, 0.008288, 0.008280, 0.008283, 0.008288, 0.008289, 0.008305, 0.008323, 0.008322, 0.008287, 0.008238, 0.008470, 0.008689, 0.008688, 0.008690, 0.008674, 0.008671, 0.008693, 0.008689, 0.008677, 0.008707, 0.008800, 0.008875, 0.008935, 0.009008, 0.009189, 0.009453, 0.009608, 0.009509, 0.009296, 0.009182, 0.009182, 0.009174, 0.009194, 0.009247, 0.009285, 0.009295, 0.009274, 0.009271, 0.009290, 0.009405, 0.009658, 0.009571, 0.009077, 0.008812, 0.008675, 0.008476, 0.008215, 0.007838, 0.007680, 0.007751, 0.008026, 0.008536, 0.009283, 0.010136, 0.010854, 0.011321, 0.011571, 0.011682, 0.011715, 0.011702, 0.011696, 0.011688, 0.011648, 0.011649, 0.012010, 0.012879, 0.013776, 0.014522, 0.015213, 0.015795, 0.016142, 0.016292, 0.016353, 0.016374, 0.016396, 0.016286, 0.016149, 0.016126, 0.016130, 0.016140, 0.016134, 0.016134, 0.016151, 0.016152, 0.016137, 0.016067, 0.016008, 0.015991, 0.016007, 0.015987, 0.015880, 0.015795, 0.015789, 0.015790, 0.015796, 0.015869, 0.016048, 0.016197, 0.016243, 0.016278, 0.016359, 0.016455, 0.016535, 0.016627, 0.016719, 0.016711, 0.016719, 0.016803, 0.016839, 0.016926, 0.016987, 0.016932, 0.016911, 0.016906, 0.016893, 0.016871, 0.016793, 0.016566, 0.016152, 0.015687, 0.015333, 0.015126, 0.015039, 0.015012, 0.015028, 0.015113, 0.015231, 0.015284, 0.015258, 0.014964, 0.014233, 0.013396, 0.012593, 0.011747, 0.010952, 0.010426, 0.010178, 0.010083, 0.010041, 0.010015, 0.010028, 0.010037, 0.010043, 0.010079, 0.010115, 0.010134, 0.010112, 0.010098, 0.010142, 0.010197, 0.010208, 0.010230, 0.010315, 0.010301, 0.010193, 0.010124, 0.010104, 0.010125, 0.010246, 0.010364, 0.010270, 0.009984, 0.009754, 0.009769, 0.009974, 0.010121, 0.010090, 0.009991, 0.009845, 0.009605, 0.009339, 0.009171, 0.009045, 0.008868, 0.008644, 0.008525, 0.008642, 0.008825, 0.008872, 0.008856, 0.008783, 0.008510, 0.008169, 0.008076, 0.008172, 0.008222, 0.008239, 0.008270, 0.008340, 0.008335, 0.008183, 0.008008, 0.007915, 0.007929, 0.007965, 0.007953, 0.007949, 0.007933, 0.007962, 0.007986, 0.007982, 0.007990, 0.007988, 0.007959, 0.007985, 0.008088, 0.008189, 0.008217, 0.008184, 0.008173, 0.008247, 0.008381, 0.008487, 0.008503, 0.008477, 0.008516, 0.008554, 0.008457, 0.008358, 0.008369, 0.008474, 0.008556, 0.008549, 0.008409, 0.008254, 0.008229, 0.008224, 0.008177, 0.008008, 0.007636, 0.007241, 0.007073, 0.007059, 0.007062, 0.007009, 0.006920, 0.006870, 0.007043, 0.007434, 0.007746, 0.007825, 0.007659, 0.007462, 0.007458, 0.007444, 0.007277, 0.007198, 0.007222, 0.007150, 0.007018, 0.006960, 0.006940, 0.006917, 0.006867, 0.006858, 0.006891, 0.006930, 0.007044, 0.007056, 0.007015, 0.007046, 0.007056, 0.007121, 0.007138, 0.007115, 0.007161, 0.007273, 0.007278, 0.007287, 0.007237, 0.007088, 0.006976, 0.006960, 0.006960, 0.006904, 0.006786, 0.006634, 0.006582, 0.006797, 0.006992, 0.006976, 0.006903, 0.006901, 0.007050, 0.007198, 0.007159, 0.007054, 0.007018, 0.007038, 0.007261, 0.007455, 0.007464, 0.007524, 0.007743, 0.007992, 0.008050, 0.008046, 0.008015, 0.008241, 0.008922, 0.009407, 0.009726, 0.010220, 0.010958, 0.011503, 0.011732, 0.011829, 0.011886, 0.012028, 0.012394, 0.012820, 0.013069, 0.013153, 0.013216, 0.013518, 0.014626, 0.016882, 0.019632, 0.021728, 0.022433, 0.022430, 0.023587, 0.026716, 0.031104, 0.036111, 0.041360, 0.046063, 0.049526, 0.051942, 0.053948, 0.055942, 0.057881, 0.059551, 0.060970, 0.062355, 0.063614, 0.064204, 0.064201, 0.065293, 0.069358, 0.075504, 0.080607, 0.083203, 0.084207, 0.084771, 0.085465, 0.086572, 0.088381, 0.091055, 0.093848, 0.095639, 0.096444, 0.096872, 0.097234, 0.097457, 0.097457, 0.097619, 0.098269, 0.099127, 0.099836, 0.100419, 0.101065, 0.101876, 0.102741, 0.103538, 0.104273, 0.104893, 0.105346, 0.105677, 0.105962, 0.106118, 0.106110, 0.106291, 0.106867, 0.107514, 0.108032, 0.108499, 0.108886, 0.109040, 0.109004, 0.108999, 0.109059, 0.108951, 0.108640, 0.108514, 0.108793, 0.109065, 0.108736, 0.107612, 0.106186, 0.105103, 0.104476, 0.104162, 0.103958, 0.103580, 0.102834, 0.101835, 0.100872, 0.100022, 0.099175, 0.098468, 0.098685, 0.100619, 0.103102, 0.103054, 0.099391, 0.095318, 0.093922, 0.094817, 0.096282, 0.097011, 0.096597, 0.095111, 0.092593, 0.089766, 0.087854, 0.086970, 0.086523, 0.086186, 0.086026, 0.086298, 0.087121, 0.088661, 0.090232, 0.090483, 0.089837, 0.089530, 0.089318, 0.088823, 0.088322, 0.088184, 0.088394, 0.088293, 0.087779, 0.088617, 0.092313, 0.096927, 0.099882, 0.101313, 0.102732, 0.104602, 0.105603, 0.105342, 0.105568, 0.107925, 0.112397, 0.117483, 0.121669, 0.124430, 0.125918, 0.126393, 0.126222, 0.125966, 0.125984, 0.125971, 0.125401, 0.124316, 0.123267, 0.122680, 0.122402, 0.122185, 0.122115, 0.122114, 0.122535, 0.123903, 0.125061, 0.124880, 0.123327, 0.120685, 0.118437, 0.117816, 0.117913, 0.117415, 0.116004, 0.114374, 0.113270, 0.112791, 0.112925, 0.113742, 0.115625, 0.119097, 0.122813, 0.123871, 0.124352, 0.130357, 0.140212, 0.147297, 0.149414, 0.148691, 0.148083, 0.148080, 0.148040, 0.148728, 0.149900, 0.150236, 0.149787, 0.149433, 0.149705, 0.150622, 0.151529, 0.151872, 0.151809, 0.151194, 0.149920, 0.148964, 0.150082, 0.153849, 0.157259, 0.157856, 0.156253, 0.153176, 0.149400, 0.146168, 0.144078, 0.142918, 0.142508, 0.143496, 0.147501, 0.153931, 0.159820, 0.163984, 0.167024, 0.168820, 0.168806, 0.170068, 0.178559, 0.193613, 0.207537, 0.215243, 0.217471, 0.217438, 0.217271, 0.217664, 0.218440, 0.218735, 0.218731, 0.218708, 0.218678, 0.219590, 0.221850, 0.225292, 0.229702, 0.234242, 0.237995, 0.240670, 0.242166, 0.242736, 0.243383, 0.243397, 0.240203, 0.234530, 0.230048, 0.228679, 0.230343, 0.234443, 0.239644, 0.243717, 0.245281, 0.245309, 0.245508, 0.246488, 0.248219, 0.249515, 0.249146, 0.248650, 0.248785, 0.248402, 0.247868, 0.247812, 0.247530, 0.245826, 0.242893, 0.241042, 0.241119, 0.241446, 0.241323, 0.241219, 0.241264, 0.241372, 0.241539, 0.241628, 0.241055, 0.238672, 0.234593, 0.230572, 0.227558, 0.225344, 0.223988, 0.224142, 0.223741, 0.217513, 0.204329, 0.190169, 0.181166, 0.177589, 0.176780, 0.176781, 0.176313, 0.175343, 0.175108, 0.175602, 0.176423, 0.177309, 0.176898, 0.174420, 0.169991, 0.164016, 0.157699, 0.152057, 0.146656, 0.141315, 0.137645, 0.137040, 0.138258, 0.139359, 0.139761, 0.139498, 0.138145, 0.134479, 0.127163, 0.117067, 0.108055, 0.102880, 0.100643, 0.099341, 0.097040, 0.092281, 0.087929, 0.087889, 0.087356, 0.083250, 0.079893, 0.078899, 0.079236, 0.080803, 0.082443, 0.082830, 0.081668, 0.079767, 0.078861, 0.079218, 0.079487, 0.078782, 0.077987, 0.078056, 0.077812, 0.077457, 0.079669, 0.085310, 0.092097, 0.096826, 0.098129, 0.098127, 0.098115, 0.096937, 0.095812, 0.095630, 0.096048, 0.096765, 0.097062, 0.097136, 0.097400, 0.098576, 0.100750, 0.102323, 0.102215, 0.100794, 0.099139, 0.098410, 0.098980, 0.100006, 0.100363, 0.099683, 0.098832, 0.098973, 0.099903, 0.100338, 0.099757, 0.099021, 0.098867, 0.098926, 0.098776, 0.098673, 0.098955, 0.100325, 0.105179, 0.115080, 0.125670, 0.131433, 0.132616, 0.132502, 0.132633, 0.133055, 0.133436, 0.133408, 0.133080, 0.132909, 0.133186, 0.133405, 0.132969, 0.132484, 0.132338, 0.132326, 0.132627, 0.132832, 0.132607, 0.132372, 0.132485, 0.132510, 0.132011, 0.131751, 0.131674, 0.130182, 0.126477, 0.121638, 0.117967, 0.116861, 0.116860, 0.116373, 0.116019, 0.116001, 0.116000, 0.115659, 0.115222, 0.115438, 0.116025, 0.116542, 0.116288, 0.114975, 0.113623, 0.112987, 0.112954, 0.113270, 0.113511, 0.113144, 0.112483, 0.112309, 0.112681, 0.113227, 0.113638, 0.113755, 0.113399, 0.112359, 0.110904, 0.109666, 0.109018, 0.108905, 0.108910, 0.108755, 0.107767, 0.103442, 0.092758, 0.078248, 0.068572, 0.066696, 0.067527, 0.067688, 0.066651, 0.065767, 0.067239, 0.070198, 0.071400, 0.070886, 0.070173, 0.069309, 0.068613, 0.069293, 0.070970, 0.071170, 0.070687, 0.071112, 0.071192, 0.070809, 0.070667, 0.071001, 0.071806, 0.072288, 0.072345, 0.072336, 0.072400, 0.072623, 0.072746, 0.072745, 0.072712, 0.072711, 0.072900, 0.073020, 0.073063, 0.074290, 0.078044, 0.082883, 0.086114, 0.087197, 0.087169, 0.086899, 0.087031, 0.087908, 0.088894, 0.089183, 0.088975, 0.088705, 0.088463, 0.088454, 0.088471, 0.088097, 0.087385, 0.086701, 0.086386, 0.086420, 0.086966, 0.087703, 0.087803, 0.087828, 0.087710, 0.089184, 0.093407, 0.096182, 0.096435, 0.096136, 0.095749, 0.095360, 0.095158, 0.095275, 0.095057, 0.093317, 0.090605, 0.089453, 0.089882, 0.090253, 0.090328, 0.090156, 0.089392, 0.088180, 0.087820, 0.088083, 0.087844, 0.087588, 0.087713, 0.088376, 0.089415, 0.090208, 0.090830, 0.091159, 0.091149, 0.091465, 0.092249, 0.092816, 0.092912, 0.092905, 0.092925, 0.092783, 0.092690, 0.092669, 0.091405, 0.087769, 0.082970, 0.079404, 0.077754, 0.077279, 0.077329, 0.077167, 0.076117, 0.074404, 0.072946, 0.072412, 0.072794, 0.073366, 0.073095, 0.071916, 0.070838, 0.070438, 0.070565, 0.070982, 0.071389, 0.071097, 0.070425, 0.070376, 0.070316, 0.070290, 0.067990, 0.061615, 0.056832, 0.055942, 0.055924, 0.055970, 0.056468, 0.057757, 0.058918, 0.059454, 0.059657, 0.059754, 0.059468, 0.058785, 0.058226, 0.058143, 0.058619, 0.059352, 0.059516, 0.059125, 0.058831, 0.058751, 0.058688, 0.058435, 0.057382, 0.055295, 0.052969, 0.051274, 0.050596, 0.050626, 0.050110, 0.048501, 0.047220, 0.047081, 0.047453, 0.047952, 0.048346, 0.048561, 0.048754, 0.048978, 0.048773, 0.047889, 0.046736, 0.045990, 0.046016, 0.046679, 0.047751, 0.049298, 0.051582, 0.054566, 0.057499, 0.059410, 0.060156, 0.060499, 0.061157, 0.062735, 0.065381, 0.067734, 0.068606, 0.068345, 0.067952, 0.068165, 0.068812, 0.069018, 0.069077, 0.069476, 0.069524, 0.069215, 0.069066, 0.069040, 0.068932, 0.068234, 0.066871, 0.065829, 0.065671, 0.066327, 0.067404, 0.068362, 0.068978, 0.000000, 