0.052206, 0.011687, -0.026550, -0.048481, -0.049448, -0.039971, -0.033519, -0.040433, -0.063061, -0.093888, -0.123250, -0.146972, -0.159324, -0.148007, -0.116190, -0.095892, -0.107953, -0.127962, -0.119476, -0.073202, 0.000350, 0.082377, 0.138727, 0.139370, 0.102959, 0.082679, 0.092003, 0.090301, 0.052370, 0.004568, -0.015130, -0.001267, 0.021291, 0.031891, 0.032293, 0.029613, 0.025615, 0.030544, 0.057511, 0.092791, 0.099740, 0.064302, 0.016361, -0.007787, -0.006214, 0.001846, 0.007575, 0.006996, -0.018422, -0.087785, -0.189427, -0.278030, -0.310438, -0.288803, -0.248408, -0.193898, -0.095684, 0.041788, 0.162707, 0.215665, 0.197458, 0.141093, 0.075169, 0.013945, -0.015371, 0.033954, 0.184104, 0.376453, 0.479271, 0.401741, 0.212376, 0.078358, 0.069975, 0.100099, 0.068658, -0.014468, -0.080933, -0.104778, -0.102838, -0.090154, -0.071594, -0.049769, -0.033704, -0.039760, -0.069978, -0.093820, -0.070375, 0.004509, 0.086648, 0.127263, 0.115596, 0.075004, 0.036256, 0.020238, 0.028522, 0.041509, 0.034263, 0.001631, -0.036365, -0.054522, -0.036476, 0.020618, 0.089781, 0.114864, 0.066383, -0.010353, -0.051938, -0.065151, -0.100055, -0.160085, -0.196279, -0.182725, -0.150882, -0.135020, -0.124741, -0.089669, -0.020047, 0.065401, 0.138277, 0.184121, 0.202608, 0.188751, 0.134638, 0.051991, -0.026156, -0.071471, -0.080395, -0.068881, -0.057405, -0.064731, -0.095975, -0.127286, -0.123553, -0.075924, -0.006796, 0.061815, 0.122183, 0.159109, 0.150702, 0.096075, 0.015071, -0.067553, -0.119056, -0.098791, 0.001605, 0.114358, 0.140623, 0.062291, -0.030356, -0.042764, 0.021861, 0.078799, 0.065836, 0.012046, -0.012537, 0.004935, 0.009759, -0.036021, -0.099199, -0.120990, -0.085201, -0.025938, 0.015923, 0.031720, 0.038643, 0.050833, 0.067917, 0.080360, 0.081186, 0.072732, 0.061189, 0.048734, 0.029818, -0.003951, -0.047032, -0.074563, -0.072259, -0.060389, -0.063423, -0.073279, -0.065272, -0.036682, -0.012355, -0.011543, -0.024166, -0.027367, -0.010550, 0.018457, 0.041800, 0.047041, 0.033560, 0.007293, -0.019010, -0.029945, -0.029089, -0.041206, -0.078170, -0.122086, -0.148133, -0.146331, -0.121096, -0.082047, -0.032914, 0.025962, 0.077156, 0.094164, 0.078188, 0.059786, 0.056750, 0.047505, 0.001711, -0.070007, -0.121554, -0.126869, -0.099032, -0.051130, 0.022863, 0.115904, 0.196500, 0.244640, 0.259193, 0.229434, 0.146196, 0.039095, -0.037114, -0.057594, -0.041479, -0.013733, 0.015964, 0.043152, 0.062503, 0.069302, 0.062206, 0.045115, 0.024609, 0.004959, -0.013745, -0.029748, -0.037640, -0.034557, -0.023104, -0.011629, -0.009515, -0.015718, -0.020153, -0.018093, -0.013384, -0.010265, -0.009395, -0.011050, -0.018013, -0.029765, -0.039163, -0.043801, -0.047602, -0.047590, -0.040818, -0.036312, -0.039557, -0.041653, -0.033928, -0.019439, -0.009768, -0.008372, 0.000556, 0.030321, 0.066009, 0.075307, 0.046991, 0.002563, -0.034039, -0.050016, -0.042355, -0.028155, -0.033881, -0.066571, -0.102982, -0.108506, -0.071650, -0.012237, 0.048437, 0.099361, 0.119367, 0.087509, 0.021802, -0.027761, -0.035615, -0.024033, -0.019942, -0.019245, -0.010097, 0.002211, 0.010879, 0.018972, 0.027464, 0.029980, 0.025009, 0.023366, 0.029730, 0.033031, 0.027361, 0.020441, 0.019765, 0.021461, 0.015779, 0.004371, -0.001420, -0.000182, 0.000464, -0.000344, 0.000882, 0.002972, 0.004136, 0.004265, 0.001414, -0.003821, -0.004256, 0.002463, 0.005141, -0.006255, -0.027331, -0.045433, -0.049563, -0.038666, -0.022960, -0.012131, -0.007587, -0.006332, -0.005620, -0.005265, -0.007831, -0.012790, -0.012234, -0.002028, 0.007202, 0.003316, -0.006781, -0.004709, 0.012487, 0.026644, 0.023243, 0.016652, 0.032849, 0.065439, 0.078529, 0.052411, 0.004477, -0.033046, -0.047053, -0.048120, -0.046941, -0.043446, -0.036755, -0.029901, -0.024145, -0.020424, -0.022781, -0.031306, -0.037990, -0.031820, -0.010297, 0.011396, 0.013963, -0.003316, -0.019066, -0.007613, 0.035071, 0.083979, 0.104828, 0.086201, 0.056341, 0.051424, 0.067932, 0.068146, 0.033081, -0.009107, -0.020762, -0.003557, 0.010650, 0.001964, -0.019233, -0.028545, -0.017046, 0.003289, 0.018331, 0.019398, 0.008398, 0.003571, 0.018663, 0.042773, 0.053666, 0.041062, 0.013439, -0.013063, -0.030380, -0.040189, -0.042164, -0.033269, -0.021843, -0.026814, -0.048725, -0.056621, -0.030818, 0.000553, -0.001467, -0.031988, -0.050736, -0.036905, -0.010200, 0.006229, 0.010362, 0.005035, -0.005747, -0.010174, -0.002075, 0.011461, 0.021111, 0.024189, 0.022905, 0.017810, 0.006852, -0.010817, -0.032620, -0.050498, -0.057200, -0.053952, -0.044125, -0.030441, -0.016194, 0.002654, 0.030779, 0.055077, 0.056141, 0.037014, 0.019377, 0.008857, -0.017390, -0.075430, -0.138818, -0.160685, -0.130767, -0.078667, -0.025768, 0.025412, 0.070854, 0.107997, 0.142034, 0.168289, 0.161102, 0.103888, 0.021558, -0.042561, -0.068799, -0.063061, -0.038069, -0.004559, 0.027799, 0.043249, 0.025130, -0.021214, -0.062808, -0.072494, -0.060859, -0.052497, -0.043898, -0.014048, 0.037396, 0.082400, 0.092618, 0.070577, 0.043187, 0.026658, 0.015538, 0.005467, 0.006902, 0.025515, 0.046853, 0.055074, 0.053666, 0.056136, 0.060051, 0.047079, 0.009647, -0.036138, -0.061242, -0.050409, -0.020162, 0.000394, 0.001055, -0.007175, -0.013839, -0.018193, -0.020788, -0.021594, -0.023390, -0.028354, -0.034530, -0.037484, -0.034801, -0.031561, -0.033460, -0.031100, -0.010103, 0.023116, 0.043716, 0.032969, -0.006141, -0.048446, -0.061506, -0.037681, -0.001423, 0.031382, 0.068167, 0.106918, 0.126834, 0.110499, 0.064022, 0.012437, -0.028375, -0.057926, -0.076539, -0.085390, -0.088826, -0.090628, -0.092074, -0.088644, -0.074937, -0.054578, -0.036079, -0.024019, -0.015815, 0.003178, 0.055415, 0.141031, 0.214478, 0.216382, 0.132595, 0.008921, -0.091948, -0.137910, -0.132589, -0.093929, -0.042617, -0.002305, 0.007969, -0.008234, -0.025677, -0.021109, 0.012146, 0.058958, 0.089311, 0.085472, 0.049578, -0.010409, -0.072738, -0.094620, -0.053907, 0.006026, 0.017231, -0.025597, -0.066491, -0.076386, -0.084546, -0.109161, -0.106051, -0.022534, 0.113723, 0.205042, 0.198352, 0.144709, 0.123268, 0.148921, 0.173313, 0.146940, 0.064845, -0.032058, -0.091745, -0.099091, -0.081830, -0.060783, -0.029742, 0.006687, 0.021132, 0.001129, -0.030300, -0.041371, -0.024069, 0.003186, 0.017713, 0.014900, 0.003939, -0.008163, -0.016332, -0.017011, -0.013877, -0.011576, -0.009348, -0.008042, -0.012728, -0.023293, -0.026826, -0.004612, 0.042617, 0.078382, 0.057097, -0.025341, -0.117192, -0.161493, -0.151234, -0.116669, -0.080472, -0.050827, -0.040303, -0.058825, -0.085922, -0.081398, -0.037423, 0.008084, 0.019318, -0.005823, -0.046200, -0.064657, -0.021517, 0.080948, 0.175806, 0.185794, 0.107080, 0.015838, -0.015388, 0.012907, 0.045677, 0.042905, 0.013407, -0.015200, -0.034771, -0.059769, -0.101560, -0.139808, -0.126731, -0.033243, 0.104899, 0.200327, 0.200027, 0.146993, 0.118068, 0.126010, 0.126710, 0.094208, 0.051130, 0.033410, 0.047552, 0.072065, 0.082932, 0.067611, 0.030259, -0.011170, -0.040448, -0.057661, -0.076571, -0.107886, -0.139979, -0.142836, -0.105807, -0.056844, -0.032846, -0.038502, -0.042020, -0.017249, 0.025829, 0.063011, 0.083967, 0.084305, 0.056541, 0.011176, -0.017214, -0.007434, 0.024515, 0.049198, 0.049357, 0.023196, -0.017793, -0.055001, -0.072273, -0.063705, -0.040092, -0.021632, -0.018481, -0.025009, -0.030274, -0.027567, -0.017555, -0.009095, -0.016990, -0.054898, -0.125958, -0.209331, -0.263497, -0.267327, -0.243876, -0.217629, -0.176308, -0.101524, -0.004168, 0.093570, 0.186064, 0.275061, 0.352566, 0.406841, 0.418558, 0.350653, 0.191564, 0.004935, -0.114823, -0.127671, -0.066268, 0.003472, 0.029727, 0.006917, -0.026647, -0.032049, -0.009462, 0.023945, 0.068811, 0.113138, 0.100393, -0.008516, -0.155103, -0.226956, -0.171161, -0.030606, 0.094934, 0.113829, 0.018128, -0.106007, -0.171164, -0.169309, -0.145161, -0.123474, -0.088885, -0.030709, 0.026126, 0.053878, 0.053017, 0.032537, -0.003874, -0.035162, -0.023754, 0.036200, 0.096242, 0.108879, 0.096598, 0.124012, 0.194213, 0.228734, 0.174377, 0.080445, 0.030512, 0.029348, 0.015321, -0.028569, -0.047147, -0.004283, 0.060648, 0.085263, 0.054298, 0.003451, -0.023490, -0.010570, 0.015656, 0.005074, -0.056941, -0.122036, -0.137169, -0.106918, -0.069954, -0.043754, -0.020585, 0.004762, 0.022919, 0.022502, 0.004009, -0.024515, -0.056741, -0.087438, -0.109038, -0.119423, -0.127189, -0.134038, -0.127865, -0.106339, -0.081665, -0.057976, -0.031579, -0.005467, 0.013551, 0.015385, -0.008530, -0.037032, -0.014018, 0.093394, 0.225515, 0.269182, 0.194877, 0.091116, 0.041409, 0.036694, 0.019800, -0.043466, -0.143456, -0.236515, -0.274138, -0.245663, -0.191194, -0.153433, -0.130487, -0.100249, -0.066209, -0.054584, -0.072077, -0.081274, -0.040712, 0.040800, 0.120869, 0.180241, 0.237653, 0.311264, 0.370145, 0.348725, 0.232729, 0.092259, -0.001975, -0.050677, -0.074546, -0.048590, 0.044383, 0.147325, 0.186843, 0.157413, 0.108030, 0.091706, 0.135767, 0.210409, 0.240898, 0.186488, 0.083070, -0.009756, -0.079522, -0.153010, -0.223658, -0.231921, -0.138683, 0.007928, 0.095769, 0.054639, -0.056118, -0.099355, -0.011399, 0.126093, 0.182649, 0.119132, -0.001961, -0.113309, -0.199195, -0.261048, -0.274094, -0.218052, -0.131113, -0.086897, -0.116701, -0.179662, -0.207755, -0.156649, -0.022399, 0.144253, 0.242697, 0.204695, 0.073158, -0.051553, -0.115902, -0.122733, -0.089417, -0.039513, -0.002513, 0.009571, 0.018883, 0.053370, 0.104047, 0.135758, 0.130167, 0.091498, 0.021679, -0.078488, -0.177090, -0.216982, -0.181097, -0.126310, -0.124785, -0.183060, -0.244631, -0.265149, -0.245619, -0.189166, -0.082238, 0.050268, 0.132516, 0.141261, 0.163821, 0.276092, 0.413940, 0.443676, 0.327695, 0.156205, 0.031444, -0.019806, -0.023425, -0.010065, 0.001711, 0.015976, 0.048364, 0.080560, 0.059472, -0.030700, -0.143583, -0.236518, -0.295702, -0.287895, -0.169209, 0.031538, 0.197573, 0.240830, 0.212191, 0.229713, 0.304362, 0.333342, 0.273253, 0.201929, 0.177928, 0.153862, 0.079311, -0.002725, -0.020385, 0.022061, 0.052976, 0.017143, -0.078679, -0.187640, -0.277500, -0.353760, -0.421119, -0.448091, -0.391118, -0.244831, -0.060633, 0.090284, 0.175194, 0.209025, 0.212549, 0.193560, 0.164189, 0.135861, 0.095960, 0.031391, -0.023731, -0.016044, 0.050915, 0.113374, 0.109914, 0.027928, -0.086248, -0.155109, -0.134908, -0.065895, -0.035048, -0.071903, -0.117709, -0.113488, -0.069363, -0.031579, -0.018686, -0.014774, -0.008389, -0.006443, -0.013410, -0.021344, -0.021273, -0.013936, -0.008383, -0.009812, -0.013248, -0.015077, -0.022114, -0.040771, -0.067159, -0.093403, -0.116066, -0.135202, -0.141399, -0.113817, -0.046585, 0.041109, 0.126157, 0.187199, 0.202617, 0.171482, 0.122436, 0.080113, 0.038566, -0.010676, -0.048731, -0.051224, -0.015779, 0.044381, 0.104893, 0.123629, 0.070604, -0.024204, -0.087042, -0.083835, -0.064357, -0.089758, -0.142507, -0.152125, -0.083414, 0.032849, 0.134741, 0.168433, 0.111977, -0.003501, -0.100022, -0.104564, -0.015644, 0.086698, 0.136969, 0.163595, 0.209536, 0.227811, 0.145388, -0.001946, -0.090745, -0.067876, -0.000623, 0.043046, 0.070815, 0.105405, 0.130176, 0.118715, 0.072265, 0.009339, -0.054863, -0.105331, -0.132324, -0.144391, -0.151120, -0.146558, -0.126986, -0.104867, -0.093194, -0.086815, -0.073711, -0.064798, -0.088649, -0.138465, -0.144438, -0.044904, 0.117636, 0.225577, 0.211497, 0.115514, 0.025100, -0.013554, -0.014342, -0.003328, 0.013381, 0.042317, 0.086653, 0.132674, 0.144888, 0.092588, -0.004932, -0.085378, -0.102497, -0.061474, -0.008824, 0.005635, -0.027070, -0.063549, -0.054736, -0.008169, 0.021946, 0.012516, -0.002931, 0.003698, 0.011129, -0.019604, -0.085742, -0.126093, -0.082112, 0.025950, 0.112645, 0.122645, 0.085751, 0.061859, 0.057605, 0.031244, -0.034398, -0.105590, -0.143474, -0.145558, -0.141851, -0.162772, -0.195353, -0.176811, -0.074284, 0.044525, 0.081024, 0.038578, 0.022234, 0.101345, 0.235383, 0.335729, 0.345632, 0.268800, 0.158413, 0.073840, 0.029251, -0.009859, -0.069866, -0.129326, -0.152598, -0.135890, -0.097744, -0.046779, 0.013204, 0.055592, 0.042837, -0.024792, -0.096598, -0.118477, -0.081260, -0.018801, 0.028496, 0.042108, 0.032332, 0.019148, 0.002325, -0.034921, -0.093347, -0.141034, -0.136596, -0.069719, 0.032061, 0.122101, 0.153753, 0.115528, 0.050104, 0.012040, 0.009542, 0.007084, -0.021999, -0.066771, -0.099402, -0.107562, -0.096457, -0.069578, -0.029113, 0.011917, 0.042141, 0.069296, 0.107794, 0.152313, 0.173263, 0.146049, 0.081468, 0.018995, -0.010738, -0.011643, -0.011646, -0.036268, -0.085663, -0.134520, -0.160461, -0.161825, -0.152284, -0.154156, -0.181714, -0.209413, -0.181937, -0.085633, 0.032408, 0.144706, 0.268905, 0.377558, 0.376741, 0.239578, 0.079722, 0.018319, 0.047602, 0.078614, 0.058928, 0.006911, -0.032287, -0.031832, 0.004233, 0.046441, 0.064266, 0.054178, 0.034733, 0.018325, -0.003704, -0.042543, -0.090548, -0.133247, -0.163645, -0.181452, -0.191741, -0.196411, -0.189924, -0.167995, -0.132848, -0.091677, -0.047073, 0.011999, 0.095875, 0.182660, 0.216676, 0.164145, 0.060854, -0.022755, -0.057911, -0.074507, -0.104385, -0.137136, -0.136989, -0.085201, -0.000694, 0.079337, 0.138991, 0.187996, 0.216097, 0.187237, 0.108406, 0.053076, 0.077476, 0.145773, 0.170420, 0.108403, -0.000647, -0.079452, -0.087609, -0.056212, -0.058011, -0.124517, -0.173063, -0.076592, 0.150773, 0.317096, 0.264020, 0.050889, -0.134656, -0.193775, -0.172834, -0.146205, -0.129838, -0.108612, -0.080334, -0.056506, -0.047608, -0.045242, -0.022167, 0.032326, 0.094849, 0.142278, 0.179633, 0.209251, 0.199142, 0.126886, 0.031670, -0.027475, -0.042576, -0.044907, -0.050083, -0.052017, -0.048217, -0.044930, -0.046844, -0.050615, -0.050301, -0.045633, -0.042252, -0.047414, -0.062235, -0.077041, -0.080037, -0.071424, -0.063046, -0.058361, -0.044266, -0.011452, 0.034648, 0.089863, 0.153313, 0.200944, 0.189900, 0.113371, 0.022666, -0.021723, -0.003727, 0.038566, 0.044066, -0.016779, -0.109973, -0.170450, -0.167613, -0.130384, -0.108691, -0.117765, -0.130423, -0.119258, -0.082856, -0.035171, 0.010100, 0.044560, 0.062870, 0.062359, 0.043087, 0.013381, -0.007975, -0.016179, -0.029195, -0.055283, -0.082500, -0.100137, -0.102894, -0.086201, -0.053637, -0.018833, 0.006690, 0.024236, 0.049290, 0.103367, 0.184462, 0.241168, 0.212220, 0.108350, 0.019204, 0.009739, 0.044072, 0.042637, -0.015491, -0.069205, -0.048922, 0.038196, 0.118609, 0.140158, 0.113956, 0.075892, 0.043866, 0.017490, 0.000861, 0.004154, 0.016438, 0.003663, -0.046856, -0.088426, -0.042817, 0.108153, 0.264431, 0.287536, 0.155047, -0.013733, -0.104505, -0.117642, -0.113059, -0.113629, -0.100675, -0.069284, -0.039134, -0.019080, -0.001484, 0.015112, 0.018475, -0.001749, -0.033596, -0.052840, -0.049904, -0.032623, -0.015426, -0.013195, -0.030853, -0.052667, -0.058005, -0.044001, -0.020083, 0.000500, 0.002725, -0.016779, -0.040750, -0.046356, -0.031156, -0.016655, -0.018954, -0.025200, -0.013774, 0.014177, 0.043125, 0.069205, 0.095313, 0.105469, 0.073634, 0.007211, -0.055430, -0.093373, -0.111428, -0.114552, -0.105052, -0.093070, -0.086856, -0.073141, -0.034751, 0.007078, 0.009753, -0.027913, -0.065113, -0.078208, -0.079796, -0.080181, -0.067197, -0.027749, 0.036279, 0.112715, 0.187146, 0.241700, 0.250096, 0.195950, 0.106689, 0.043493, 0.035915, 0.049431, 0.035121, -0.013507, -0.063573, -0.079969, -0.056277, -0.020747, -0.006432, -0.016432, -0.028666, -0.027405, -0.016576, -0.006802, -0.001667, 0.002696, 0.007898, 0.010391, 0.008516, 0.003851, -0.000996, -0.004109, -0.005612, -0.005065, -0.001061, 0.006108, 0.012804, 0.014404, 0.012196, 0.011282, 0.010535, 0.005803, -0.001285, -0.006987, -0.009568, -0.007737, -0.003748, -0.004065, -0.011352, -0.021400, -0.028590, -0.031538, -0.032102, -0.028081, -0.012484, 0.016488, 0.043549, 0.042734, 0.011020, -0.020953, -0.028475, -0.020359, -0.019992, -0.037120, -0.059487, -0.069666, -0.067779, -0.066483, -0.070210, -0.071374, -0.062776, -0.049419, -0.041947, -0.037370, -0.012799, 0.060371, 0.178927, 0.278641, 0.282533, 0.193016, 0.095005, 0.054222, 0.050136, 0.024968, -0.030239, -0.065395, -0.042167, 0.018410, 0.072124, 0.096395, 0.086609, 0.048355, 0.001182, -0.029563, -0.027279, 0.001417, 0.025729, 0.022552, 0.004988, 0.000729, 0.014642, 0.029333, 0.025956, -0.005647, -0.059122, -0.109579, -0.134200, -0.135405, -0.129435, -0.117965, -0.095807, -0.075372, -0.071727, -0.074555, -0.060565, -0.026938, 0.003178, 0.006634, -0.012731, -0.028437, -0.025618, -0.011696, 0.004550, 0.016940, 0.017643, 0.003851, -0.019210, -0.038155, -0.039892, -0.022102, 0.008980, 0.041750, 0.064528, 0.072250, 0.065169, 0.048108, 0.028563, 0.011755, 0.002105, 0.001196, 0.002402, -0.000218, -0.004168, -0.006099, -0.006864, -0.010759, -0.022949, -0.041600, -0.054554, -0.046867, -0.011008, 0.046679, 0.101627, 0.118600, 0.079031, -0.000885, -0.082917, -0.132748, -0.140426, -0.122263, -0.098967, -0.076421, -0.049366, -0.008483, 0.057970, 0.148016, 0.225498, 0.240566, 0.182660, 0.095889, 0.034865, 0.016285, 0.018222, 0.017611, 0.012440, 0.009909, 0.012725, 0.014418, 0.005797, -0.007599, -0.011211, -0.003548, 0.004148, 0.003513, -0.000723, 0.001834, 0.010659, 0.015823, 0.010756, -0.004456, -0.023263, -0.033801, -0.030583, -0.021620, -0.014068, -0.001787, 0.021044, 0.041030, 0.039813, 0.019257, -0.006108, -0.025388, -0.035406, -0.039313, -0.039754, -0.039360, -0.043946, -0.055877, -0.068949, -0.071227, -0.052973, -0.017343, 0.017005, 0.029101, 0.014309, -0.011946, -0.032470, -0.043431, -0.050257, -0.055871, -0.054213, -0.039233, -0.017637, -0.007108, -0.020759, -0.049604, -0.065968, -0.052035, -0.019183, 0.007490, 0.015515, 0.010838, 0.008489, 0.021755, 0.052632, 0.087991, 0.105537, 0.090836, 0.054298, 0.025406, 0.026550, 0.051318, 0.072556, 0.076195, 0.069140, 0.059096, 0.049107, 0.038393, 0.024692, 0.010591, -0.001608, -0.015068, -0.033175, -0.052053, -0.060280, -0.051177, -0.034260, -0.027484, -0.036682, -0.049290, -0.050889, -0.038581, -0.019454, -0.006041, -0.004512, -0.007734, -0.009647, -0.010920, -0.008910, -0.001743, 0.006523, 0.012943, 0.015650, 0.014004, 0.012587, 0.012366, 0.005635, -0.008777, -0.017746, -0.012111, 0.000767, 0.010759, 0.014783, 0.011702, 0.005318, 0.006582, 0.020638, 0.039039, 0.046773, 0.034901, 0.012087, -0.002390, -0.002440, 0.000035, -0.003780, -0.011129, -0.018807, -0.025059, -0.030377, -0.038552, -0.044386, -0.038108, -0.022396, -0.004900, 0.012954, 0.028543, 0.035709, 0.034039, 0.030791, 0.032526, 0.036982, 0.036506, 0.029189, 0.018810, 0.008216, -0.000600, -0.006152, -0.006658, -0.000412, 0.006846, 0.004912, -0.004018, -0.007361, -0.003189, -0.002155, -0.012278, -0.031553, -0.051385, -0.066641, -0.079246, -0.085833, -0.074452, -0.045304, -0.019477, -0.012657, -0.012646, -0.001579, 0.014944, 0.022202, 0.019218, 0.014398, 0.015006, 0.023948, 0.039048, 0.050310, 0.044510, 0.022261, 0.000359, -0.007196, -0.000914, 0.011285, 0.023260, 0.030500, 0.030350, 0.024119, 0.012211, -0.007240, -0.028281, -0.036288, -0.022934, 0.004256, 0.024942, 0.021059, -0.000200, -0.009715, 0.004368, 0.021156, 0.020756, 0.007604, -0.004403, -0.007884, -0.005171, -0.003119, -0.003636, -0.005394, -0.006102, -0.000717, 0.011050, 0.022011, 0.026379, 0.026179, 0.026617, 0.026649, 0.020238, 0.004847, -0.016967, -0.041035, -0.061265, -0.067473, -0.051197, -0.018125, 0.009330, 0.010012, -0.013160, -0.035662, -0.038522, -0.023531, -0.001599, 0.020656, 0.038940, 0.048384, 0.047987, 0.040891, 0.030109, 0.015903, -0.001132, -0.015053, -0.019509, -0.015829, -0.009668, -0.002449, 0.006767, 0.014533, 0.017599, 0.018166, 0.015159, 0.004544, -0.007408, -0.011258, -0.009780, -0.011050, -0.015306, -0.017123, -0.014536, -0.010038, -0.005982, -0.003948, -0.004177, -0.004386, -0.004262, -0.007431, -0.013583, -0.015168, -0.009107, -0.001561, 0.001972, 0.000123, -0.005379, -0.008719, -0.004750, 0.004007, 0.008927, 0.007878, 0.007081, 0.004544, -0.005838, -0.015024, -0.011558, -0.000364, 0.010009, 0.018610, 0.024236, 0.023642, 0.017293, 0.010159, 0.006684, 0.006826, 0.009927, 0.015550, 0.016508, 0.006161, -0.006711, -0.009918, -0.005623, 0.000491, 0.007337, 0.010329, 0.003801, -0.014527, -0.042420, -0.066988, -0.070495, -0.050010, -0.024586, -0.012957, -0.009371, 0.001728, 0.018763, 0.029086, 0.029086, 0.027229, 0.030862, 0.033131, 0.021273, 0.000320, -0.009909, -0.005741, 0.000617, 0.005253, 0.009189, 0.009433, 0.006229, 0.006729, 0.021347, 0.053984, 0.088829, 0.098370, 0.074793, 0.040380, 0.018924, 0.010750, 0.000400, -0.023507, -0.057958, -0.089740, -0.109452, -0.115566, -0.104561, -0.074857, -0.038881, -0.011105, 0.006443, 0.014777, 0.012290, 0.005376, 0.006482, 0.017337, 0.024706, 0.015450, -0.005200, -0.017658, -0.011523, 0.006082, 0.020950, 0.024454, 0.018880, 0.009515, -0.001302, -0.010956, -0.014856, -0.008601, 0.002604, 0.002878, -0.010861, -0.015882, 0.009418, 0.051656, 0.072356, 0.055139, 0.022414, 0.000897, -0.004683, -0.005761, -0.013054, -0.022464, -0.023143, -0.016164, -0.008839, 0.000267, 0.012361, 0.019080, 0.015329, 0.006482, 0.003636, 0.017613, 0.047158, 0.074331, 0.079049, 0.057003, 0.022190, -0.005800, -0.015820, -0.011493, -0.006405, -0.012023, -0.032743, -0.068470, -0.107924, -0.121545, -0.084325, -0.013022, 0.040412, 0.042405, 0.008963, -0.018895, -0.020133, -0.009656, -0.009207, -0.021473, -0.035665, -0.037149, -0.020233, 0.001417, 0.011496, 0.008963, 0.002713, 0.005171, 0.026303, 0.057552, 0.069898, 0.043211, -0.005723, -0.037505, -0.033187, -0.008842, 0.009994, 0.011543, 0.002346, -0.004753, -0.006002, -0.002710, 0.003283, 0.006020, 0.003848, 0.001555, -0.002113, -0.010315, -0.015050, -0.008360, 0.002560, 0.006881, 0.005373, 0.005000, 0.008510, 0.014739, 0.019980, 0.018933, 0.011141, 0.000744, -0.010235, -0.020335, -0.026164, -0.026508, -0.023157, -0.018586, -0.014057, -0.007966, 0.003566, 0.023675, 0.046074, 0.055706, 0.048164, 0.034968, 0.025250, 0.017478, 0.007919, -0.003883, -0.014018, -0.015412, -0.008087, -0.001740, 0.000044, 0.002737, 0.008331, 0.013810, 0.015147, 0.011399, 0.006020, -0.000079, -0.006984, -0.011308, -0.012493, -0.012863, -0.010488, -0.002769, 0.005082, 0.005853, 0.001293, -0.001440, 0.000385, 0.004318, 0.006746, 0.005485, 0.003580, 0.003915, 0.001855, -0.003760, -0.006637, -0.006382, -0.009230, -0.015274, -0.016508, -0.011117, -0.007848, -0.012749, -0.021723, -0.027217, -0.027637, -0.025865, -0.024639, -0.024792, -0.021367, -0.011564, -0.001984, 0.002416, 0.005729, 0.011005, 0.009836, -0.003539, -0.018028, -0.020759, -0.011629, 0.000573, 0.007943, 0.009089, 0.006808, 0.005512, 0.007863, 0.010797, 0.011978, 0.012655, 0.010903, 0.007343, 0.009433, 0.018804, 0.029192, 0.035183, 0.031994, 0.018272, 0.000879, -0.011549, -0.015794, -0.012743, -0.005009, 0.001370, 0.000820, -0.005362, -0.011570, -0.015282, -0.019521, -0.023049, -0.017637, -0.003075, 0.008927, 0.009985, 0.005417, 0.004462, 0.008960, 0.016535, 0.021006, 0.015359, 0.005106, 0.002557, 0.007393, 0.008301, -0.000379, -0.011973, -0.016623, -0.013090, -0.007584, -0.003639, 0.000685, 0.008333, 0.019633, 0.028787, 0.028107, 0.017314, 0.002069, -0.011470, -0.019586, -0.023060, -0.022181, -0.014260, -0.001046, 0.011867, 0.022975, 0.031723, 0.033419, 0.025215, 0.012340, 0.001820, -0.006055, -0.013325, -0.019574, -0.022470, -0.019712, -0.014377, -0.009797, -0.006108, -0.006655, -0.011238, -0.014962, -0.016843, -0.015250, -0.009283, -0.004768, -0.004953, -0.004383, 0.001411, 0.007602, 0.008137, 0.004924, 0.001608, -0.001822, -0.003131, 0.000708, 0.006611, 0.011167, 0.013422, 0.011605, 0.008669, 0.008948, 0.009086, 0.006311, 0.005676, 0.010859, 0.016261, 0.012590, -0.000776, -0.014771, -0.020344, -0.014265, -0.003280, 0.000999, -0.002454, -0.006305, -0.009148, -0.013278, -0.016949, -0.015294, -0.006185, 0.004759, 0.010256, 0.008107, 0.000464, -0.005958, -0.005009, 0.001473, 0.007122, 0.008607, 0.006923, 0.005420, 0.006317, 0.007740, 0.008563, 0.009527, 0.007652, 0.002102, -0.000861, 0.001896, 0.004286, 0.000970, -0.003980, -0.005077, -0.003730, -0.002607, -0.000841, 0.000600, -0.001646, -0.005247, -0.004550, -0.000617, 0.002948, 0.006552, 0.008122, 0.005438, 0.004295, 0.007261, 0.006235, -0.002425, -0.012387, -0.018910, -0.022255, -0.021167, -0.013895, -0.005100, -0.000635, -0.000267, -0.001511, -0.002308, -0.000970, 0.002184, 0.004874, 0.005991, 0.007346, 0.008040, 0.003028, -0.006226, -0.011111, -0.008178, -0.001614, 0.003245, 0.004818, 0.003989, -0.001114, -0.009668, -0.013845, -0.011635, -0.009971, -0.010809, -0.011711, -0.013513, -0.013069, -0.004239, 0.007798, 0.010262, 0.002834, -0.002108, 0.000682, 0.007484, 0.014918, 0.019151, 0.019953, 0.023592, 0.033687, 0.045254, 0.049619, 0.042914, 0.026435, 0.005509, -0.008266, -0.008560, -0.005529, -0.011464, -0.023507, -0.029733, -0.025591, -0.016846, -0.010197, -0.007437, -0.009045, -0.016787, -0.026899, -0.032429, -0.033672, -0.031508, -0.022743, -0.008401, 0.008319, 0.025873, 0.040136, 0.043957, 0.035133, 0.022040, 0.013463, 0.010009, 0.009283, 0.008286, 0.003236, -0.007025, -0.018872, -0.025832, -0.024242, -0.015888, -0.005050, 0.004209, 0.011852, 0.020950, 0.028875, 0.028857, 0.020056, 0.008319, -0.000403, -0.002678, 0.002654, 0.008757, 0.004042, -0.010717, -0.022049, -0.020691, -0.010332, -0.002795, -0.005908, -0.015912, -0.022428, -0.021535, -0.020709, -0.025127, -0.029130, -0.026820, -0.019362, -0.010456, -0.001373, 0.008139, 0.016023, 0.017096, 0.010138, 0.003836, 0.004274, 0.006435, 0.008895, 0.015817, 0.025388, 0.034081, 0.037917, 0.026849, 0.001117, -0.016573, -0.011620, 0.001661, 0.007740, 0.007375, 0.006446, 0.008683, 0.012237, 0.013216, 0.011526, 0.006972, 0.001208, -0.000556, 0.000447, -0.002987, -0.012575, -0.020965, -0.019286, -0.010803, -0.007657, -0.009994, -0.008910, -0.004724, -0.000644, 0.001952, -0.003727, -0.017731, -0.026491, -0.018069, 0.003771, 0.018057, 0.009051, -0.011937, -0.020835, -0.006840, 0.018472, 0.032396, 0.024824, 0.004021, -0.016923, -0.026341, -0.021373, -0.014171, -0.015268, -0.020227, -0.022349, -0.021917, -0.017857, -0.004109, 0.019180, 0.038484, 0.038840, 0.020042, 0.000847, 0.002066, 0.019750, 0.031979, 0.031829, 0.028866, 0.026629, 0.020347, 0.008924, -0.000162, 0.001984, 0.011602, 0.013295, -0.000238, -0.018795, -0.028869, -0.027772, -0.019268, -0.009045, -0.005720, -0.011776, -0.019865, -0.021632, -0.013963, -0.004083, -0.003716, -0.010606, -0.010938, -0.001828, 0.007913, 0.012866, 0.011008, 0.005606, 0.006649, 0.012793, 0.011737, 0.004318, 0.002992, 0.010591, 0.018772, 0.020209, 0.012525, 0.000435, -0.006167, -0.004959, -0.001317, 0.000914, -0.000644, -0.005735, -0.010935, -0.015468, -0.021846, -0.030189, -0.037188, -0.037931, -0.028587, -0.014036, -0.005300, -0.006073, -0.010127, -0.010967, -0.009004, -0.005112, 0.003413, 0.013207, 0.016523, 0.012402, 0.006214, 0.005050, 0.012255, 0.020668, 0.021523, 0.018166, 0.017034, 0.016608, 0.015635, 0.017161, 0.018207, 0.010665, -0.000967, -0.003363, 0.001834, 0.001752, -0.006276, -0.010885, -0.001432, 0.014556, 0.018681, 0.007064, -0.006823, -0.011311, -0.005473, 0.004971, 0.011876, 0.011055, 0.004938, -0.002837, -0.010523, -0.016153, -0.015738, -0.009236, -0.002587, 0.001164, 0.003136, 0.005947, 0.011273, 0.013413, 0.006896, -0.001120, -0.000670, 0.006117, 0.009633, 0.007025, 0.004201, 0.004383, 0.005112, 0.005044, 0.003560, 0.000156, -0.003607, -0.006000, -0.005905, -0.004897, -0.007149, -0.013998, -0.023584, -0.031511, -0.032105, -0.027734, -0.026032, -0.027158, -0.028375, -0.030189, -0.032437, -0.034948, -0.036647, -0.034354, -0.029145, -0.024939, -0.020750, -0.012655, 0.000029, 0.012446, 0.021514, 0.034524, 0.054710, 0.066277, 0.057453, 0.046723, 0.060130, 0.088943, 0.095163, 0.060968, 0.011429, -0.018745, -0.023919, -0.024368, -0.035218, -0.049392, -0.054413, -0.052006, -0.049075, -0.044410, -0.033449, -0.015820, 0.003460, 0.017957, 0.025312, 0.027405, 0.026788, 0.023275, 0.015509, 0.007128, 0.009083, 0.037138, 0.094746, 0.151452, 0.165876, 0.136875, 0.099314, 0.071236, 0.043352, 0.012602, -0.006852, -0.002302, 0.016696, 0.023466, 0.005012, -0.026905, -0.053043, -0.064584, -0.069784, -0.080213, -0.091013, -0.088773, -0.070751, -0.042226, -0.013789, -0.011485, -0.056712, -0.125522, -0.167866, -0.169915, -0.158839, -0.154350, -0.148894, -0.131225, -0.099664, -0.052350, 0.002737, 0.035935, 0.024568, -0.017440, -0.048552, -0.023348, 0.079369, 0.220803, 0.304753, 0.252909, 0.099149, -0.019892, -0.011144, 0.077479, 0.142104, 0.144662, 0.116119, 0.087876, 0.060774, 0.028448, -0.004606, -0.032123, -0.051753, -0.063720, -0.072238, -0.082568, -0.095046, -0.103726, -0.100316, -0.078479, -0.038848, 0.001984, 0.011693, -0.029416, -0.096004, -0.133218, -0.106933, -0.029392, 0.056962, 0.113056, 0.125155, 0.110361, 0.106222, 0.138156, 0.191564, 0.221353, 0.193028, 0.113553, 0.017616, -0.062958, -0.111084, -0.126628, -0.126369, -0.129949, -0.138609, -0.135764, -0.111098, -0.070154, -0.022955, 0.011793, 0.009127, -0.025485, -0.050768, -0.036082, 0.009007, 0.054681, 0.090134, 0.125549, 0.155638, 0.158080, 0.134949, 0.116619, 0.117827, 0.120131, 0.099499, 0.051059, -0.012957, -0.080980, -0.150914, -0.210289, -0.226700, -0.185171, -0.115290, -0.062250, -0.041359, -0.031012, -0.011852, 0.007287, 0.017825, 0.034730, 0.068264, 0.100604, 0.109358, 0.097594, 0.085363, 0.071239, 0.027246, -0.048502, -0.111284, -0.126390, -0.107665, -0.086074, -0.069866, -0.047840, -0.019007, 0.002690, 0.013810, 0.027267, 0.050136, 0.073038, 0.079384, 0.054763, -0.004024, -0.083067, -0.161167, -0.222206, -0.257077, -0.263285, -0.245860, -0.219184, -0.196179, -0.160444, -0.072156, 0.067897, 0.185632, 0.218649, 0.211970, 0.249369, 0.311399, 0.298727, 0.191870, 0.094223, 0.089611, 0.136504, 0.149938, 0.117324, 0.078041, 0.045001, 0.000685, -0.060557, -0.124779, -0.176220, -0.202714, -0.199710, -0.177314, -0.143612, -0.082970, 0.020847, 0.142719, 0.226277, 0.241139, 0.216141, 0.209072, 0.246383, 0.295402, 0.297245, 0.231098, 0.138630, 0.076938, 0.062091, 0.065812, 0.050451, -0.000526, -0.076530, -0.151502, -0.202902, -0.229872, -0.249863, -0.277160, -0.312381, -0.338683, -0.322151, -0.241539, -0.118385, -0.000523, 0.075345, 0.106060, 0.119491, 0.138997, 0.152240, 0.135561, 0.096930, 0.063255, 0.035374, -0.009298, -0.072323, -0.123183, -0.139870, -0.137574, -0.139900, -0.145255, -0.142795, -0.136366, -0.140799, -0.162437, -0.179280, -0.152560, -0.063640, 0.064061, 0.171767, 0.208067, 0.172378, 0.106110, 0.061171, 0.079149, 0.157842, 0.234457, 0.237688, 0.151393, 0.016864, -0.103803, -0.163272, -0.158192, -0.137148, -0.149253, -0.174406, -0.144964, -0.041797, 0.069087, 0.107450, 0.070228, 0.033072, 0.054663, 0.102812, 0.104446, 0.045515, -0.025491, -0.070642, -0.087127, -0.077423, -0.049795, -0.045639, -0.108250, -0.202311, -0.213934, -0.083679, 0.085713, 0.129429, 0.033969, -0.025794, 0.094631, 0.312592, 0.416800, 0.331611, 0.189992, 0.144991, 0.203466, 0.267312, 0.259496, 0.179636, 0.080633, 0.014856, -0.011335, -0.038322, -0.101907, -0.186088, -0.239931, -0.234043, -0.186738, -0.137236, -0.103585, -0.068737, -0.002337, 0.095372, 0.170523, 0.167804, 0.105375, 0.053775, 0.043437, 0.038531, 0.003754, -0.047349, -0.083449, -0.097633, -0.105266, -0.122336, -0.149488, -0.172381, -0.177378, -0.160435, -0.128583, -0.100069, -0.091736, -0.101639, -0.108121, -0.093241, -0.064978, -0.042582, -0.029765, -0.014130, 0.023816, 0.095986, 0.173689, 0.190321, 0.117060, 0.014650, -0.032940, -0.015150, 0.014506, 0.025203, 0.045886, 0.104329, 0.156034, 0.121143, -0.002822, -0.116160, -0.129173, -0.061577, -0.002984, -0.000556, -0.016435, 0.006746, 0.065492, 0.107280, 0.103209, 0.071677, 0.042840, 0.023216, 0.002037, -0.014697, -0.007252, 0.023248, 0.054572, 0.068440, 0.061677, 0.043766, 0.026000, 0.012993, 0.000976, -0.022099, -0.063455, -0.107997, -0.126604, -0.106751, -0.069463, -0.048828, -0.051083, -0.048381, -0.020947, 0.018178, 0.045201, 0.052685, 0.050795, 0.046738, 0.034901, 0.013298, -0.009583, -0.028363, -0.043646, -0.053781, -0.052491, -0.033325, 0.001340, 0.038563, 0.065795, 0.074390, 0.057203, 0.019709, -0.011147, -0.007693, 0.020015, 0.027152, -0.005000, -0.038169, -0.029319, 0.013222, 0.040812, 0.016979, -0.047823, -0.115043, -0.153983, -0.145202, -0.080289, 0.020080, 0.110278, 0.157046, 0.160347, 0.135825, 0.099432, 0.068984, 0.054836, 0.050286, 0.041911, 0.017340, -0.028913, -0.080145, -0.105011, -0.088937, -0.044007, 0.006511, 0.038604, 0.036538, 0.007687, -0.021708, -0.035236, -0.048869, -0.089737, -0.149782, -0.187525, -0.175473, -0.125137, -0.071395, -0.043240, -0.041614, -0.037514, -0.003245, 0.046776, 0.066400, 0.040927, 0.009121, 0.001714, -0.001123, -0.017784, -0.019265, 0.015900, 0.049225, 0.037014, -0.006864, -0.040997, -0.045380, -0.020012, 0.024398, 0.073288, 0.134708, 0.228834, 0.327669, 0.357728, 0.291745, 0.191940, 0.140102, 0.151828, 0.172410, 0.147866, 0.080457, 0.013874, -0.011708, 0.006661, 0.023795, -0.018736, -0.122001, -0.215177, -0.235560, -0.194445, -0.149797, -0.139935, -0.157149, -0.173445, -0.174280, -0.163204, -0.147251, -0.131269, -0.118191, -0.103056, -0.073640, -0.021282, 0.047673, 0.103853, 0.112204, 0.071815, 0.021232, -0.003636, -0.002646, 0.001238, -0.003783, -0.008463, -0.002319, 0.009251, 0.010582, -0.003078, -0.016735, -0.013210, 0.007543, 0.033681, 0.059895, 0.086509, 0.102168, 0.087938, 0.045230, 0.003225, -0.012825, -0.008134, -0.001573, 0.002651, 0.008236, 0.007801, -0.005174, -0.019145, -0.018913, -0.008580, -0.010191, -0.038628, -0.081412, -0.110807, -0.107765, -0.070830, -0.013857, 0.047282, 0.102800, 0.141413, 0.151123, 0.127316, 0.074578, 0.008404, -0.048705, -0.080184, -0.082021, -0.063311, -0.044216, -0.042737, -0.068917, -0.125023, -0.183048, -0.185015, -0.102744, 0.017114, 0.093941, 0.104773, 0.111942, 0.171017, 0.235751, 0.207599, 0.076021, -0.051903, -0.085957, -0.054857, -0.035400, -0.047687, -0.063414, -0.061306, -0.040495, -0.002922, 0.055704, 0.131087, 0.197805, 0.218969, 0.172111, 0.079696, -0.001958, -0.037758, -0.036476, -0.025045, -0.019189, -0.014060, -0.002913, 0.003751, -0.006223, -0.025050, -0.035912, -0.037173, -0.042508, -0.060692, -0.085930, -0.104135, -0.105578, -0.092559, -0.071121, -0.044536, -0.019166, 0.000359, 0.023260, 0.055586, 0.078767, 0.074904, 0.056923, 0.047973, 0.044548, 0.025868, -0.003436, -0.013395, 0.006649, 0.031550, 0.031635, 0.007931, -0.015812, -0.030336, -0.048913, -0.084034, -0.128436, -0.155470, -0.137736, -0.066894, 0.033328, 0.104152, 0.091186, 0.010159, -0.059804, -0.064904, -0.022899, 0.021447, 0.049822, 0.070583, 0.088273, 0.091360, 0.068235, 0.028798, 0.003169, 0.008260, 0.026917, 0.034180, 0.026379, 0.011787, -0.007234, -0.024648, -0.022296, 0.004877, 0.032299, 0.031767, 0.003439, -0.026852, -0.041206, -0.048228, -0.060615, -0.072462, -0.073661, -0.068861, -0.067985, -0.072620, -0.072000, -0.048902, -0.009783, 0.002269, -0.037484, -0.085969, -0.085146, -0.042902, -0.011823, -0.005432, 0.015618, 0.068511, 0.104834, 0.076589, 0.010382, -0.026406, -0.006608, 0.045404, 0.093982, 0.114555, 0.103288, 0.080272, 0.073967, 0.103723, 0.163022, 0.207928, 0.190744, 0.117686, 0.042502, -0.001526, -0.027152, -0.047264, -0.049486, -0.030971, -0.014624, -0.014362, -0.018313, -0.014927, -0.010444, -0.015859, -0.032814, -0.056688, -0.082312, -0.102195, -0.108376, -0.101642, -0.092065, -0.086092, -0.081345, -0.076139, -0.069504, -0.054713, -0.032673, -0.014839, -0.000226, 0.021594, 0.048361, 0.067050, 0.066462, 0.046435, 0.022831, 0.012622, 0.012643, 0.008680, 0.001032, 0.003962, 0.022464, 0.043646, 0.051770, 0.042332, 0.023587, 0.010894, 0.011555, 0.007634, -0.028284, -0.086656, -0.116924, -0.087550, -0.026961, 0.011385, 0.007992, -0.016661, -0.039184, -0.048834, -0.036332, -0.001496, 0.030483, 0.031306, 0.005088, -0.018057, -0.018204, -0.004568, -0.000273, -0.009145, -0.002939, 0.042361, 0.107183, 0.144009, 0.124464, 0.071644, 0.041350, 0.054966, 0.076762, 0.073047, 0.053034, 0.039572, 0.032058, 0.013760, -0.017046, -0.041368, -0.045492, -0.044951, -0.072074, -0.130805, -0.184659, -0.203601, -0.194871, -0.179624, -0.163968, -0.135631, -0.077506, 0.012346, 0.104855, 0.156326, 0.151840, 0.114567, 0.071251, 0.030665, -0.000294, -0.005162, 0.015130, 0.028928, 0.016761, 0.007313, 0.036256, 0.081004, 0.085260, 0.043255, 0.008680, 0.024201, 0.081289, 0.142428, 0.169930, 0.147331, 0.096036, 0.053614, 0.031338, 0.008965, -0.028731, -0.066897, -0.084437, -0.086530, -0.092112, -0.101031, -0.094396, -0.061162, -0.012237, 0.029380, 0.045624, 0.031188, -0.005121, -0.041515, -0.055412, -0.045433, -0.030462, -0.023957, -0.028451, -0.043508, -0.061912, -0.071756, -0.066906, -0.051794, -0.037232, -0.031723, -0.034154, -0.030627, -0.002842, 0.052535, 0.113979, 0.148048, 0.134473, 0.081774, 0.017611, -0.033175, -0.059863, -0.066647, -0.064257, -0.057256, -0.043513, -0.020550, 0.010832, 0.039583, 0.046030, 0.023519, -0.008804, -0.026188, -0.022840, -0.009821, -0.001052, -0.006120, -0.023675, -0.041462, -0.050833, -0.053131, -0.050145, -0.036523, -0.006855, 0.023049, 0.017655, -0.028460, -0.060257, -0.024295, 0.053375, 0.101945, 0.099232, 0.079093, 0.069763, 0.065571, 0.048396, 0.018275, -0.001608, 0.008798, 0.041297, 0.065125, 0.053320, 0.008042, -0.032887, -0.029636, 0.013722, 0.059087, 0.081956, 0.078167, 0.044410, -0.012302, -0.061627, -0.076974, -0.069992, -0.070995, -0.081592, -0.077276, -0.051526, -0.025283, -0.007578, 0.018107, 0.052594, 0.067165, 0.048902, 0.022343, 0.019424, 0.050066, 0.089170, 0.090431, 0.038922, -0.018334, -0.022293, 0.021926, 0.055027, 0.046911, 0.022849, 0.006914, -0.015074, -0.060974, -0.114470, -0.143498, -0.134303, -0.103247, -0.088838, -0.123550, -0.199851, -0.261554, -0.245298, -0.144676, -0.018601, 0.071054, 0.110211, 0.117800, 0.111472, 0.104861, 0.114767, 0.141975, 0.148724, 0.099038, 0.029968, 0.020903, 0.089082, 0.176182, 0.227294, 0.232867, 0.199457, 0.126025, 0.024069, -0.071844, -0.130164, -0.148283, -0.151687, -0.165823, -0.187320, -0.192484, -0.168633, -0.122377, -0.065081, -0.007857, 0.033352, 0.047452, 0.041641, 0.032887, 0.030121, 0.027499, 0.017205, 0.012037, 0.038525, 0.095772, 0.140041, 0.127266, 0.061359, -0.011105, -0.053916, -0.074399, -0.089555, -0.089155, -0.062570, -0.029959, -0.016182, -0.014086, 0.005782, 0.051962, 0.094284, 0.104831, 0.096845, 0.098376, 0.107195, 0.097327, 0.062802, 0.025053, -0.005564, -0.041238, -0.086133, -0.118559, -0.112118, -0.071500, -0.029989, -0.009033, -0.001828, 0.005085, 0.008507, -0.006476, -0.039445, -0.068587, -0.078205, -0.077324, -0.079984, -0.081442, -0.070013, -0.047567, -0.024072, -0.009065, -0.012466, -0.031773, -0.044181, -0.029918, 0.001678, 0.016444, -0.008525, -0.056462, -0.093617, -0.108470, -0.109349, -0.099855, -0.084534, -0.090152, -0.140091, -0.203807, -0.210636, -0.123333, 0.016705, 0.128450, 0.184850, 0.243050, 0.352461, 0.471801, 0.516326, 0.447721, 0.290079, 0.102597, -0.039039, -0.078244, -0.028607, 0.030753, 0.029571, -0.029345, -0.080777, -0.062458, 0.040033, 0.192567, 0.318556, 0.326123, 0.188010, -0.006135, -0.125217, -0.125781, -0.073546, -0.047714, -0.062567, -0.083494, -0.083155, -0.070089, -0.075433, -0.113891, -0.158715, -0.162560, -0.112668, -0.054410, -0.040057, -0.069452, -0.099138, -0.106101, -0.123741, -0.178154, -0.212734, -0.159283, -0.062079, -0.026729, -0.056565, -0.044154, 0.065383, 0.193360, 0.232908, 0.166432, 0.056967, -0.025239, -0.052338, -0.047784, -0.054081, -0.089587, -0.139847, -0.176596, -0.175779, -0.127468, -0.050286, 0.007854, 0.024903, 0.057964, 0.183816, 0.375777, 0.499524, 0.455023, 0.275757, 0.076271, -0.058390, -0.127909, -0.183119, -0.238096, -0.236080, -0.130490, 0.029374, 0.135764, 0.136725, 0.079369, 0.037831, 0.033948, 0.042746, 0.042587, 0.035271, 0.032793, 0.037711, 0.040462, 0.038707, 0.039445, 0.041315, 0.035686, 0.018836, -0.003619, -0.022020, -0.037696, -0.066465, -0.117821, -0.175926, -0.210753, -0.214601, -0.219813, -0.259899, -0.316299, -0.332387, -0.284355, -0.214410, -0.182411, -0.191976, -0.170902, -0.030965, 0.227679, 0.472786, 0.558714, 0.488171, 0.373828, 0.262468, 0.122624, -0.014157, -0.048190, 0.039336, 0.143771, 0.159862, 0.075583, -0.052314, -0.161640, -0.217923, -0.205483, -0.120866, -0.002537, 0.067076, 0.035159, -0.048910, -0.073746, -0.008048, 0.039666, -0.034613, -0.171238, -0.215844, -0.115240, 0.042320, 0.162372, 0.226350, 0.246148, 0.228758, 0.189786, 0.141519, 0.082550, 0.045598, 0.106401, 0.269705, 0.392908, 0.324709, 0.107189, -0.073061, -0.146684, -0.236309, -0.426945, -0.602183, -0.591313, -0.391521, -0.166093, -0.058029, -0.059343, -0.070986, -0.049113, -0.033584, -0.041350, -0.010385, 0.117204, 0.303509, 0.438482, 0.441037, 0.323092, 0.162690, 0.039031, -0.008389, 0.004530, 0.014409, -0.034845, -0.119294, -0.149917, -0.095334, -0.046979, -0.110528, -0.263097, -0.367990, -0.319191, -0.140529, 0.046015, 0.122404, 0.062564, -0.038807, -0.036376, 0.114264, 0.273579, 0.255939, 0.070266, -0.071462, -0.021335, 0.131175, 0.197117, 0.120096, 0.009812, -0.019392, 0.026982, 0.064055, 0.051588, 0.043854, 0.095387, 0.154144, 0.117495, -0.012211, -0.104870, -0.058705, 0.080278, 0.181958, 0.167096, 0.052882, -0.092797, -0.203687, -0.242341, -0.212870, -0.151472, -0.093667, -0.050524, -0.015662, 0.006664, -0.010418, -0.079322, -0.161185, -0.195471, -0.159938, -0.089755, -0.043643, -0.051782, -0.088514, -0.099955, -0.068305, -0.030359, -0.016676, -0.007775, 0.020606, 0.044898, 0.026691, -0.017555, -0.018316, 0.066700, 0.211609, 0.374677, 0.514603, 0.537176, 0.353454, 0.031982, -0.223652, -0.290572, -0.241450, -0.216506, -0.255313, -0.299412, -0.297016, -0.250307, -0.180726, -0.086792, 0.030912, 0.125737, 0.141857, 0.080010, -0.004453, -0.044616, 0.007075, 0.138788, 0.242970, 0.195406, 0.013081, -0.148462, -0.183004, -0.130617, -0.070081, -0.012593, 0.061768, 0.137610, 0.180803, 0.194380, 0.220133, 0.275319, 0.318354, 0.302483, 0.237109, 0.164750, 0.103770, 0.045953, -0.010088, -0.048267, -0.057173, -0.046094, -0.030868, -0.022475, -0.024154, -0.027834, -0.029660, -0.041080, -0.068508, -0.097344, -0.109917, -0.106401, -0.097909, -0.089872, -0.082794, -0.082691, -0.093629, -0.102356, -0.089108, -0.059078, -0.050354, -0.092941, -0.166164, -0.216224, -0.211926, -0.168395, -0.117218, -0.068082, -0.008272, 0.065092, 0.121072, 0.115734, 0.048117, -0.021899, -0.039254, -0.017890, -0.004456, -0.004647, 0.013874, 0.063282, 0.105090, 0.077964, -0.036697, -0.175691, -0.233349, -0.153724, 0.016646, 0.179065, 0.270052, 0.281675, 0.227723, 0.129432, 0.018610, -0.074096, -0.129620, -0.142654, -0.120246, -0.068343, 0.018234, 0.141340, 0.279926, 0.393281, 0.432130, 0.363784, 0.231959, 0.154703, 0.192170, 0.248352, 0.178642, -0.018198, -0.198378, -0.262891, -0.245151, -0.204183, -0.147648, -0.080304, -0.036464, -0.030721, -0.027858, 0.000488, 0.024477, -0.000476, -0.066841, -0.121669, -0.130126, -0.116675, -0.131234, -0.181138, -0.224848, -0.228855, -0.196664, -0.143001, -0.071201, 0.014997, 0.089587, 0.110234, 0.061186, -0.018075, -0.064716, -0.050521, -0.003166, 0.027911, 0.021385, -0.007322, -0.033504, -0.041391, -0.028889, -0.009859, -0.002857, -0.007622, 0.001467, 0.051503, 0.139532, 0.221568, 0.243443, 0.192905, 0.109561, 0.042776, 0.009068, -0.012087, -0.044160, -0.085357, -0.120014, -0.143500, -0.163410, -0.178245, -0.172622, -0.146461, -0.126075, -0.129217, -0.139497, -0.115546, -0.019318, 0.137504, 0.280755, 0.341432, 0.328727, 0.305743, 0.291037, 0.223099, 0.054495, -0.149106, -0.257194, -0.216529, -0.097309, 0.004483, 0.055956, 0.074384, 0.090919, 0.128077, 0.162854, 0.138209, 0.044930, -0.050448, -0.081180, -0.050213, -0.008695, 0.013880, 0.026247, 0.033252, 0.026270, 0.010426, -0.001293, -0.012269, -0.034307, -0.065689, -0.092750, -0.105584, -0.103776, -0.093764, -0.082091, -0.070322, -0.059983, -0.054078, -0.049190, -0.036494, -0.016505, 0.000720, 0.022220, 0.066630, 0.109708, 0.089096, -0.001690, -0.086374, -0.112451, -0.117201, -0.144523, -0.150976, -0.057985, 0.106695, 0.194239, 0.108385, -0.061912, -0.151943, -0.121592, -0.058314, -0.021320, 0.015071, 0.088229, 0.192440, 0.291651, 0.352117, 0.351964, 0.278468, 0.142139, -0.009980, -0.109479, -0.114417, -0.053446, -0.000988, -0.000929, -0.035236, -0.063987, -0.069216, -0.055407, -0.027573, 0.011038, 0.042749, 0.044507, 0.015729, -0.023010, -0.053708, -0.071127, -0.075348, -0.066809, -0.054813, -0.053334, -0.061394, -0.069581, -0.075139, -0.073314, -0.059525, -0.040768, -0.027455, -0.025300, -0.031938, -0.037170, -0.035412, -0.028187, -0.018093, -0.011164, -0.010817, -0.009692, -0.001349, 0.010315, 0.018760, 0.019927, 0.015424, 0.013789, 0.016388, 0.014645, 0.007413, 0.001764, 0.001123, 0.002698, 0.001623, -0.004362, -0.013313, -0.019310, -0.016688, -0.006964, 0.003069, 0.011511, 0.021109, 0.029274, 0.031094, 0.028196, 0.024227, 0.019395, 0.015512, 0.015209, 0.016364, 0.017546, 0.020571, 0.024507, 0.025897, 0.023751, 0.020806, 0.021335, 0.027787, 0.036097, 0.039574, 0.038822, 0.037967, 0.037540, 0.036811, 0.034948, 0.030203, 0.020241, 0.003707, -0.016538, -0.033281, -0.038699, -0.030932, -0.018581, -0.013342, -0.018351, -0.028393, -0.035985, -0.031570, -0.009915, 0.015185, 0.017184, -0.010382, -0.038875, -0.035365, -0.000032, 0.037167, 0.048622, 0.025694, -0.023084, -0.070701, -0.084337, -0.054948, -0.002407, 0.050883, 0.094428, 0.114887, 0.091186, 0.020097, -0.069613, -0.141810, -0.178040, -0.173651, -0.132436, -0.073720, -0.020118, 0.029486, 0.089246, 0.148066, 0.170588, 0.141249, 0.083776, 0.031470, -0.003395, -0.025518, -0.033228, -0.019027, 0.005988, 0.019656, 0.020106, 0.019401, 0.019124, 0.014850, 0.007319, 0.000265, -0.005838, -0.012951, -0.018713, -0.022946, -0.032167, -0.046133, -0.055712, -0.059648, -0.067952, -0.084052, -0.099817, -0.106051, -0.089896, -0.038213, 0.034524, 0.081971, 0.073555, 0.034454, 0.014603, 0.023763, 0.029809, 0.024074, 0.043505, 0.109202, 0.177108, 0.177117, 0.089131, -0.037061, -0.129638, -0.152251, -0.117342, -0.058061, -0.004489, 0.024898, 0.037637, 0.067326, 0.130611, 0.186688, 0.166335, 0.053214, -0.080945, -0.142104, -0.103938, -0.022467, 0.030168, 0.032796, 0.009177, -0.014736, -0.028096, -0.033534, -0.035827, -0.034436, -0.033025, -0.037593, -0.043434, -0.043596, -0.038928, -0.026032, 0.005412, 0.053411, 0.090375, 0.081583, 0.027672, -0.026891, -0.041973, -0.018892, 0.015956, 0.040774, 0.045856, 0.026214, -0.018669, -0.074187, -0.112218, -0.110049, -0.067485, -0.007757, 0.040001, 0.058364, 0.047999, 0.026453, 0.013143, 0.007881, -0.005091, -0.026699, -0.037193, -0.029345, -0.022543, -0.033410, -0.054566, -0.066636, -0.058667, -0.040095, -0.028052, -0.025283, -0.025036, -0.021111, -0.004515, 0.031582, 0.082185, 0.125552, 0.132219, 0.096186, 0.044954, 0.007904, -0.006376, -0.004115, 0.004715, 0.010497, 0.007419, 0.000391, -0.001120, 0.002795, 0.006826, 0.010291, 0.013431, 0.014971, 0.014915, 0.012631, 0.006984, -0.000841, -0.005470, -0.000585, 0.009065, 0.012281, 0.007449, -0.006335, -0.036747, -0.079269, -0.109973, -0.109008, -0.085595, -0.070842, -0.080622, -0.091557, -0.061412, 0.026317, 0.138009, 0.209777, 0.197843, 0.116701, 0.024892, -0.028496, -0.035295, -0.015559, 0.006241, 0.017340, 0.021250, 0.025779, 0.029369, 0.025097, 0.016882, 0.017799, 0.027525, 0.029304, 0.014301, -0.005506, -0.011496, 0.004106, 0.034472, 0.060665, 0.058855, 0.016767, -0.051465, -0.108362, -0.121316, -0.093200, -0.056521, -0.033507, -0.016232, 0.005150, 0.019656, 0.012117, -0.015476, -0.041703, -0.046670, -0.034213, -0.020280, -0.007828, 0.009797, 0.031044, 0.047155, 0.052026, 0.046397, 0.038522, 0.032005, 0.015088, -0.020885, -0.059534, -0.074657, -0.059601, -0.025638, 0.010908, 0.029660, 0.021203, 0.002366, -0.003416, 0.003874, 0.006270, 0.000899, 0.003345, 0.015929, 0.021573, 0.010817, -0.007290, -0.016176, -0.005850, 0.015506, 0.028534, 0.023069, 0.004071, -0.018498, -0.035697, -0.039698, -0.031823, -0.022575, -0.015750, -0.008122, 0.000121, 0.006020, 0.004274, -0.011326, -0.037023, -0.057288, -0.060742, -0.049869, -0.035518, -0.026438, -0.019218, -0.001908, 0.032070, 0.074984, 0.103582, 0.098314, 0.064813, 0.025206, 0.002596, 0.010200, 0.038928, 0.065480, 0.076013, 0.073194, 0.062961, 0.045803, 0.022890, 0.000864, -0.013075, -0.018234, -0.019492, -0.021279, -0.029166, -0.052840, -0.095228, -0.138944, -0.157495, -0.142128, -0.105781, -0.060980, -0.003757, 0.076159, 0.163895, 0.207382, 0.166875, 0.073396, 0.002081, -0.011114, 0.005776, 0.013971, 0.008874, 0.007607, 0.014210, 0.018257, 0.019683, 0.026182, 0.034424, 0.035092, 0.024230, 0.003092, -0.022561, -0.044407, -0.058108, -0.064690, -0.065595, -0.059933, -0.048708, -0.040018, -0.037899, -0.032023, -0.015785, -0.001446, -0.006432, -0.035001, -0.074084, -0.100331, -0.097906, -0.073370, -0.041717, -0.003463, 0.052952, 0.127527, 0.185103, 0.175047, 0.098244, 0.020027, -0.008398, -0.000185, 0.005782, -0.003613, -0.018013, -0.034930, -0.055877, -0.066233, -0.051947, -0.024151, -0.005135, 0.002516, 0.010497, 0.017464, 0.015659, 0.011191, 0.011067, 0.009906, 0.004859, 0.000661, -0.002657, -0.012981, -0.034022, -0.053372, -0.053590, -0.033713, -0.009456, 0.007075, 0.020168, 0.037978, 0.055683, 0.061806, 0.053996, 0.039716, 0.028460, 0.025515, 0.029283, 0.036817, 0.045991, 0.051362, 0.047708, 0.036035, 0.021961, 0.012269, 0.011167, 0.010932, -0.005667, -0.041318, -0.076013, -0.091219, -0.084896, -0.063035, -0.037099, -0.023663, -0.029568, -0.042690, -0.043211, -0.021126, 0.013281, 0.029083, -0.000464, -0.057591, -0.092003, -0.080939, -0.040012, 0.015579, 0.077077, 0.119908, 0.117404, 0.079414, 0.045515, 0.033951, 0.028798, 0.016426, -0.000579, -0.016990, -0.031088, -0.044883, -0.058819, -0.066106, -0.059340, -0.043311, -0.031847, -0.028498, -0.021479, -0.001314, 0.022214, 0.033378, 0.033084, 0.026676, 0.014130, 0.002995, -0.001290, -0.006402, -0.014086, -0.014556, -0.007093, -0.000761, 0.005138, 0.021232, 0.052591, 0.088191, 0.103018, 0.082541, 0.044348, 0.018437, 0.011361, 0.008619, 0.004724, 0.007272, 0.017187, 0.024172, 0.016811, -0.008319, -0.040774, -0.063640, -0.070119, -0.064654, -0.051829, -0.032499, -0.008251, 0.014409, 0.026664, 0.024812, 0.017625, 0.019160, 0.029286, 0.034983, 0.026741, 0.004897, -0.019745, -0.035045, -0.041659, -0.046756, -0.046712, -0.031579, -0.005082, 0.016591, 0.025133, 0.024853, 0.021743, 0.018137, 0.014656, 0.012696, 0.014830, 0.017943, 0.007866, -0.022176, -0.057376, -0.081309, -0.091436, -0.092194, -0.085237, -0.067788, -0.042305, -0.019836, -0.008630, -0.007305, -0.008539, -0.003304, 0.013901, 0.038613, 0.057561, 0.061923, 0.058290, 0.058699, 0.065904, 0.073937, 0.075298, 0.065801, 0.045574, 0.018507, -0.006990, -0.020947, -0.022549, -0.024683, -0.036382, -0.046309, -0.034372, 0.007757, 0.066012, 0.105793, 0.098138, 0.051644, 0.001002, -0.036288, -0.067394, -0.095501, -0.108215, -0.093212, -0.058772, -0.029554, -0.016408, -0.005850, 0.015291, 0.039469, 0.048693, 0.037673, 0.020094, 0.012146, 0.014036, 0.014095, 0.009768, 0.009859, 0.014718, 0.014621, 0.007699, -0.000291, -0.006129, -0.008425, -0.008131, -0.007990, -0.007807, -0.007355, -0.008672, -0.010121, -0.007940, -0.004894, -0.003933, -0.001687, 0.001361, 0.002014, 0.003422, 0.008901, 0.016399, 0.021097, 0.017193, 0.001961, -0.018951, -0.033363, -0.033575, -0.023066, -0.010688, -0.001981, 0.007128, 0.022984, 0.036779, 0.032767, 0.014027, -0.000123, 0.000503, 0.008516, 0.013313, 0.012308, 0.004300, -0.013428, -0.033037, -0.039272, -0.029533, -0.014165, 0.002554, 0.023895, 0.042873, 0.044657, 0.029865, 0.013851, 0.002181, -0.010576, -0.021502, -0.024612, -0.023557, -0.023851, -0.028634, -0.037658, -0.045230, -0.045539, -0.033131, -0.003677, 0.033666, 0.055010, 0.050277, 0.037711, 0.036373, 0.045624, 0.050571, 0.035636, 0.002910, -0.024204, -0.023604, 0.001299, 0.022593, 0.017029, -0.005032, -0.013492, -0.003042, 0.002363, -0.012972, -0.041579, -0.069140, -0.087506, -0.092950, -0.083708, -0.065028, -0.049733, -0.045307, -0.038807, -0.008457, 0.037823, 0.061506, 0.047588, 0.023304, 0.016135, 0.030677, 0.059807, 0.085683, 0.083558, 0.053058, 0.025735, 0.020233, 0.016887, -0.008413, -0.043975, -0.053267, -0.025303, 0.010820, 0.026664, 0.020333, 0.003818, -0.007904, -0.004600, 0.004747, 0.000464, -0.018604, -0.033419, -0.030797, -0.014448, 0.003495, 0.013666, 0.017613, 0.021514, 0.024912, 0.025485, 0.023686, 0.016217, 0.000503, -0.015418, -0.021655, -0.018101, -0.010944, -0.003868, 0.007372, 0.024965, 0.035486, 0.027029, 0.011067, 0.006358, 0.013019, 0.017034, 0.010903, -0.000958, -0.010468, -0.013816, -0.013181, -0.011382, -0.010447, -0.012540, -0.017490, -0.024551, -0.032484, -0.037096, -0.037290, -0.037296, -0.036879, -0.030924, -0.020171, -0.010717, -0.003627, 0.005153, 0.015985, 0.026367, 0.035412, 0.041970, 0.043490, 0.035439, 0.016588, -0.004888, -0.018310, -0.018883, -0.010638, -0.004092, -0.004330, -0.001587, 0.017105, 0.045433, 0.063255, 0.064449, 0.058043, 0.048831, 0.032311, 0.006182, -0.016496, -0.019039, -0.009383, -0.016223, -0.048696, -0.078964, -0.081665, -0.068108, -0.060901, -0.058423, -0.044707, -0.018833, 0.005435, 0.019592, 0.024724, 0.025194, 0.026391, 0.033031, 0.044357, 0.052179, 0.048516, 0.031141, 0.000220, -0.034519, -0.048287, -0.029019, 0.001193, 0.014527, 0.008198, -0.002987, -0.007731, -0.007796, -0.009456, -0.012058, -0.011555, -0.007437, -0.003472, -0.006235, -0.015227, -0.017387, -0.006108, 0.008739, 0.018510, 0.022073, 0.018942, 0.009750, -0.004248, -0.018254, -0.021532, -0.012061, -0.002346, 0.001252, 0.005632, 0.009800, 0.004256, -0.004042, 0.002337, 0.020042, 0.027825, 0.018672, 0.007484, 0.008572, 0.019066, 0.024025, 0.013187, -0.006505, -0.016517, -0.009718, -0.001026, -0.004397, -0.014268, -0.020006, -0.018054, -0.008460, 0.003116, 0.006949, 0.003060, 0.001678, 0.005767, 0.010212, 0.013589, 0.013880, 0.006902, -0.003354, -0.007975, -0.005806, -0.002784, -0.003801, -0.008539, -0.009380, -0.000147, 0.011108, 0.010318, -0.001105, -0.006967, -0.002807, 0.001179, 0.003589, 0.009327, 0.015418, 0.015809, 0.007516, -0.006705, -0.016476, -0.013698, -0.003701, 0.001984, -0.000682, -0.006141, -0.005500, 0.005417, 0.021247, 0.033160, 0.038804, 0.041241, 0.040856, 0.030968, 0.007119, -0.020188, -0.036356, -0.040251, -0.040159, -0.041782, -0.043784, -0.040918, -0.031629, -0.018974, -0.006399, 0.002331, 0.005700, 0.005997, 0.005056, 0.002263, -0.002078, -0.004780, -0.007763, -0.016732, -0.025341, -0.020703, -0.006593, -0.001987, -0.011667, -0.017143, -0.007901, 0.004597, 0.012449, 0.022863, 0.041609, 0.059645, 0.062170, 0.045112, 0.016338, -0.009315, -0.018736, -0.011793, 0.002334, 0.016364, 0.025092, 0.021464, 0.005617, -0.008960, -0.013207, -0.014815, -0.021605, -0.027913, -0.025374, -0.015953, -0.008198, -0.004935, -0.002181, 0.001767, 0.006102, 0.009794, 0.010276, 0.008383, 0.007731, 0.008336, 0.008222, 0.005250, -0.001458, -0.007787, -0.006323, 0.005723, 0.019986, 0.024366, 0.017081, 0.004327, -0.008231, -0.015817, -0.016473, -0.011493, -0.002554, 0.004336, -0.000218, -0.014118, -0.022026, -0.015938, -0.004433, 0.002140, 0.003492, 0.003566, 0.003707, 0.004977, 0.008204, 0.009074, 0.002975, -0.003607, -0.001135, 0.005359, 0.004659, -0.002187, -0.006802, -0.008072, -0.009600, -0.010811, -0.011976, -0.014409, -0.014271, -0.009465, -0.003069, 0.001734, 0.002158, -0.001317, -0.003924, -0.003375, 0.000511, 0.007105, 0.011811, 0.012190, 0.011920, 0.012302, 0.009183, 0.004036, 0.005423, 0.014539, 0.021935, 0.019048, 0.009021, 0.002228, 0.001346, 0.001775, -0.000253, -0.004336, -0.005820, -0.005667, -0.009445, -0.014115, -0.011761, -0.002246, 0.005835, 0.007769, 0.008577, 0.010362, 0.009533, 0.006502, 0.003066, -0.000899, -0.003789, -0.003539, -0.002155, -0.004568, -0.010262, -0.012816, -0.009386, -0.004768, -0.007296, -0.017223, -0.022875, -0.019177, -0.014815, -0.012505, -0.007137, -0.002487, -0.003619, -0.005476, -0.004253, -0.003216, -0.004980, -0.008386, -0.010717, -0.009048, -0.003442, 0.000676, -0.001493, -0.007499, -0.010476, -0.009254, -0.008719, -0.009597, -0.009700, -0.007987, -0.002134, 0.006755, 0.012499, 0.012849, 0.011952, 0.012064, 0.010441, 0.009683, 0.021729, 0.047740, 0.067265, 0.064860, 0.049639, 0.038375, 0.036576, 0.038161, 0.036141, 0.032146, 0.030509, 0.027731, 0.018572, 0.005920, -0.002484, -0.003927, -0.004947, -0.011779, -0.021523, -0.028504, -0.029901, -0.025782, -0.021552, -0.022370, -0.022849, -0.015912, -0.007960, -0.006649, -0.007549, -0.008766, -0.012840, -0.014606, -0.011802, -0.009318, -0.008175, -0.009321, -0.014451, -0.017555, -0.011855, -0.004342, -0.007408, -0.017355, -0.022481, -0.021017, -0.015685, -0.009421, -0.006952, -0.008442, -0.008301, -0.004497, -0.002810, -0.007640, -0.014621, -0.015700, -0.007798, 0.002640, 0.007637, 0.008181, 0.008034, 0.006552, 0.003369, -0.000564, -0.005388, -0.009921, -0.011155, -0.007866, -0.003054, -0.000376, 0.000982, 0.002252, 0.002064, 0.001796, 0.004427, 0.008513, 0.010562, 0.008184, 0.001076, -0.004733, -0.004356, -0.002113, 0.001123, 0.008325, 0.013845, 0.012549, 0.008622, 0.007546, 0.009571, 0.011117, 0.011047, 0.010729, 0.007737, 0.000814, -0.004283, -0.002634, 0.003254, 0.006702, 0.004871, 0.000276, -0.002263, 0.001255, 0.005253, 0.001470, -0.005229, -0.007499, -0.005517, -0.000279, 0.003063, -0.002516, -0.012802, -0.020047, -0.024609, -0.027437, -0.027717, -0.025715, -0.018040, -0.002795, 0.013663, 0.025803, 0.032626, 0.035774, 0.042884, 0.056465, 0.063617, 0.052335, 0.027805, 0.004656, -0.009750, -0.016420, -0.016026, -0.009218, -0.001811, -0.001464, -0.006408, -0.007028, 0.000038, 0.007478, 0.005309, -0.004203, -0.007402, -0.003081, -0.002105, -0.004568, -0.004753, -0.003101, -0.000191, 0.002234, -0.001011, -0.012025, -0.028443, -0.044045, -0.050603, -0.044933, -0.032493, -0.020600, -0.011141, -0.004148, 0.000397, 0.005988, 0.017934, 0.037529, 0.057755, 0.069890, 0.072573, 0.067861, 0.054939, 0.032185, 0.004571, -0.013457, -0.015803, -0.015488, -0.020624, -0.024648, -0.023381, -0.017161, -0.007590, 0.000068, 0.001684, -0.003501, -0.015230, -0.028434, -0.033363, -0.027173, -0.017687, -0.010891, -0.004818, 0.003560, 0.012772, 0.017264, 0.012866, 0.002014, -0.009383, -0.020671, -0.035174, -0.050174, -0.057823, -0.054745, -0.045818, -0.040577, -0.044742, -0.052676, -0.051923, -0.039254, -0.022481, -0.003965, 0.023698, 0.068393, 0.120396, 0.138815, 0.086953, -0.010379, -0.075645, -0.060298, -0.003272, 0.016397, -0.017516, -0.042296, -0.008683, 0.061968, 0.127004, 0.180224, 0.227179, 0.234942, 0.163657, 0.039316, -0.061718, -0.098467, -0.089678, -0.060757, -0.018101, 0.019795, 0.019992, -0.019633, -0.060430, -0.069163, -0.053810, -0.043943, -0.046191, -0.040274, -0.016920, 0.008184, 0.016690, 0.001943, -0.029389, -0.060968, -0.081448, -0.091577, -0.095766, -0.097051, -0.099899, -0.109076, -0.123612, -0.134923, -0.128483, -0.092791, -0.032617, 0.033778, 0.085692, 0.110290, 0.119161, 0.138862, 0.167302, 0.171002, 0.139679, 0.105193, 0.093282, 0.090366, 0.074455, 0.051653, 0.040392, 0.038801, 0.029310, 0.003469, -0.028569, -0.045092, -0.034145, -0.008998, 0.006558, 0.001917, -0.012219, -0.017020, -0.011670, -0.013672, -0.026503, -0.032467, -0.025903, -0.026358, -0.048131, -0.075263, -0.082444, -0.071947, -0.068961, -0.085804, -0.107086, -0.102930, -0.050357, 0.043828, 0.131087, 0.151996, 0.094972, 0.010641, -0.038707, -0.036417, -0.012969, 0.000541, 0.002449, 0.006276, 0.013331, 0.012108, 0.000832, -0.010879, -0.020721, -0.029057, -0.027179, -0.011100, 0.008366, 0.016291, 0.006435, -0.012355, -0.022737, -0.017828, -0.007549, -0.003857, -0.006173, 0.001555, 0.036935, 0.095031, 0.144653, 0.156796, 0.131313, 0.092045, 0.067606, 0.073855, 0.098620, 0.102965, 0.047452, -0.063246, -0.166775, -0.205594, -0.188210, -0.162845, -0.156396, -0.157366, -0.138777, -0.083508, 0.001329, 0.080886, 0.115975, 0.101680, 0.070695, 0.057067, 0.061568, 0.053408, 0.010741, -0.047920, -0.075401, -0.035900, 0.054625, 0.132242, 0.144594, 0.100737, 0.054448, 0.043907, 0.058093, 0.057923, 0.019036, -0.042743, -0.088170, -0.093835, -0.067882, -0.036294, -0.022484, -0.033469, -0.057982, -0.080651, -0.089252, -0.065539, -0.001846, 0.071042, 0.105931, 0.084540, 0.025724, -0.040495, -0.093053, -0.115134, -0.096298, -0.059834, -0.059069, -0.115390, -0.181091, -0.185235, -0.109052, -0.002440, 0.082632, 0.143777, 0.197687, 0.242085, 0.258382, 0.228046, 0.153263, 0.067973, 0.013284, -0.005661, -0.027714, -0.089164, -0.173648, -0.225086, -0.211071, -0.148994, -0.071027, 0.005150, 0.072141, 0.123903, 0.159021, 0.179412, 0.178821, 0.151425, 0.109420, 0.072176, 0.043020, 0.010741, -0.026488, -0.056773, -0.077800, -0.105105, -0.149729, -0.195456, -0.210033, -0.183757, -0.138495, -0.095275, -0.061735, -0.045465, -0.047699, -0.050753, -0.027370, 0.043954, 0.164212, 0.295473, 0.369862, 0.343398, 0.239834, 0.122260, 0.031473, -0.027143, -0.059066, -0.069343, -0.064622, -0.051920, -0.035030, -0.018969, -0.014965, -0.031929, -0.064745, -0.094420, -0.105613, -0.103420, -0.101192, -0.097627, -0.080675, -0.046224, -0.002313, 0.034548, 0.044557, 0.020676, -0.019104, -0.044057, -0.036656, -0.001940, 0.048866, 0.107883, 0.152545, 0.143157, 0.069308, -0.021617, -0.075510, -0.091489, -0.106366, -0.137548, -0.167543, -0.176003, -0.159962, -0.127207, -0.082388, -0.011926, 0.106774, 0.254049, 0.345374, 0.310041, 0.181588, 0.063067, 0.012893, 0.004565, -0.008254, -0.028490, -0.030012, -0.007828, 0.011061, 0.005156, -0.013245, -0.020565, -0.015791, -0.009656, 0.001029, 0.019648, 0.033122, 0.034142, 0.031979, 0.027934, 0.009115, -0.023989, -0.048881, -0.053240, -0.049863, -0.045853, -0.025888, 0.015135, 0.040245, 0.005588, -0.070707, -0.119441, -0.104305, -0.053502, -0.013601, -0.006920, -0.023972, -0.034004, -0.011887, 0.039075, 0.088159, 0.094061, 0.041729, -0.030706, -0.067441, -0.053978, -0.021258, 0.000929, 0.015870, 0.039551, 0.069131, 0.089370, 0.092077, 0.075710, 0.040856, -0.003198, -0.039239, -0.055019, -0.046232, -0.018745, 0.000797, -0.020200, -0.078782, -0.131284, -0.142751, -0.115552, -0.064240, 0.001455, 0.060310, 0.081533, 0.063573, 0.043669, 0.045365, 0.044275, 0.008142, -0.057655, -0.126898, -0.186320, -0.229534, -0.242226, -0.212270, -0.147025, -0.073846, -0.021423, -0.004256, -0.005729, 0.026611, 0.123729, 0.249202, 0.343998, 0.380021, 0.361406, 0.304626, 0.233443, 0.183945, 0.172613, 0.161802, 0.107151, 0.027170, -0.019965, -0.015203, 0.007743, 0.016811, 0.004618, -0.029468, -0.074825, -0.104088, -0.106283, -0.100160, -0.097021, -0.087988, -0.075372, -0.079290, -0.104102, -0.125132, -0.124326, -0.112401, -0.098550, -0.070930, -0.021664, 0.032526, 0.064390, 0.066418, 0.058105, 0.056230, 0.053737, 0.036691, 0.004736, -0.028792, -0.048328, -0.046647, -0.026173, 0.003930, 0.035042, 0.061239, 0.068070, 0.036594, -0.033804, -0.113041, -0.159503, -0.157043, -0.122148, -0.078285, -0.034034, 0.016332, 0.076089, 0.132351, 0.156972, 0.125652, 0.047035, -0.031946, -0.071362, -0.077897, -0.075577, -0.071309, -0.071503, -0.089443, -0.116986, -0.119097, -0.073875, -0.005256, 0.039489, 0.040033, 0.013466, -0.020385, -0.054722, -0.076636, -0.066974, -0.029812, 0.005027, 0.020694, 0.030512, 0.053572, 0.094164, 0.140382, 0.170885, 0.166811, 0.125446, 0.066812, 0.020103, 0.001531, 0.008657, 0.025333, 0.031370, 0.019248, -0.001702, -0.018681, -0.025574, -0.022984, -0.015961, -0.009750, -0.004712, 0.001152, 0.009383, 0.023175, 0.041321, 0.052594, 0.048102, 0.033895, 0.020576, 0.008792, -0.002898, -0.010282, -0.017584, -0.038143, -0.069172, -0.090410, -0.096327, -0.101924, -0.106727, -0.082341, -0.012017, 0.080575, 0.157434, 0.196015, 0.185418, 0.130123, 0.064399, 0.028684, 0.025976, 0.026691, 0.015923, 0.005961, 0.003086, -0.005179, -0.026670, -0.051768, -0.066862, -0.066844, -0.056427, -0.044848, -0.038393, -0.038061, -0.039166, -0.035785, -0.027570, -0.018442, -0.013848, -0.016270, -0.019580, -0.015144, -0.002863, 0.009703, 0.016693, 0.016688, 0.009503, -0.002604, -0.015723, -0.027855, -0.037849, -0.044119, -0.043696, -0.038243, -0.039842, -0.054930, -0.066468, -0.051862, -0.018269, 0.005958, 0.012896, 0.017093, 0.025480, 0.032723, 0.035201, 0.030177, 0.015529, 0.001220, 0.002837, 0.020812, 0.042352, 0.057529, 0.059913, 0.046159, 0.025177, 0.011091, 0.001728, -0.016326, -0.038746, -0.046503, -0.035442, -0.020047, -0.013551, -0.013857, -0.010926, -0.003668, 0.000994, 0.000908, 0.001523, 0.006429, 0.010447, 0.009124, 0.006673, 0.004953, -0.000664, -0.007666, -0.008116, -0.002937, 0.003607, 0.011026, 0.014503, 0.009171, 0.000514, -0.004824, -0.003815, 0.011852, 0.045013, 0.075307, 0.073423, 0.033895, -0.016902, -0.046653, -0.044037, -0.022296, -0.000738, 0.013904, 0.026073, 0.043810, 0.071315, 0.096095, 0.095022, 0.057958, -0.005538, -0.070910, -0.107107, -0.101298, -0.074910, -0.060871, -0.067679, -0.077006, -0.072279, -0.055307, -0.037055, -0.027064, -0.029354, -0.038878, -0.047050, -0.048793, -0.038378, -0.006091, 0.054575, 0.134044, 0.202720, 0.228232, 0.201664, 0.143018, 0.075683, 0.009121, -0.045589, -0.071121, -0.066733, -0.050383, -0.034272, -0.017869, 0.003031, 0.031012, 0.056433, 0.055266, 0.016352, -0.034742, -0.060510, -0.056103, -0.048305, -0.052967, -0.057694, -0.049839, -0.034286, -0.022602, -0.022179, -0.029983, -0.035744, -0.033775, -0.026726, -0.019997, -0.016361, -0.013607, -0.005559, 0.009051, 0.023951, 0.038687, 0.059607, 0.080113, 0.074443, 0.027184, -0.035056, -0.064096, -0.043878, -0.004759, 0.017599, 0.017293, 0.005115, -0.011687, -0.025521, -0.026182, -0.009162, 0.018404, 0.040054, 0.041556, 0.024704, 0.007895, 0.007895, 0.017796, 0.008486, -0.035256, -0.084937, -0.094769, -0.057705, -0.011961, 0.017011, 0.047787, 0.089346, 0.104285, 0.069184, 0.020973, 0.004212, 0.015227, 0.023710, 0.018969, 0.016505, 0.027376, 0.039231, 0.035929, 0.018534, -0.000150, -0.010485, -0.012866, -0.013924, -0.017469, -0.018481, -0.010994, -0.003889, -0.012472, -0.034865, -0.058328, -0.076595, -0.086739, -0.085648, -0.075698, -0.066077, -0.062899, -0.063617, -0.064769, -0.063049, -0.047311, -0.005573, 0.049730, 0.079040, 0.058843, 0.012211, -0.021056, -0.026958, -0.015212, 0.006461, 0.032649, 0.051083, 0.055460, 0.053587, 0.054193, 0.056559, 0.058828, 0.068867, 0.090275, 0.104676, 0.090595, 0.051565, 0.007681, -0.027123, -0.047608, -0.056127, -0.064193, -0.079608, -0.089261, -0.066574, -0.007563, 0.052035, 0.072723, 0.057770, 0.046285, 0.057999, 0.070034, 0.058925, 0.037529, 0.033078, 0.044639, 0.044719, 0.022772, -0.002196, -0.017916, -0.033166, -0.054313, -0.079102, -0.106407, -0.132686, -0.150302, -0.152134, -0.131478, -0.090704, -0.052117, -0.042746, -0.064572, -0.088450, -0.081404, -0.038713, 0.016661, 0.066553, 0.114155, 0.159727, 0.181946, 0.161525, 0.105840, 0.043596, 0.007916, 0.012078, 0.036041, 0.049119, 0.037670, 0.009812, -0.014695, -0.021793, -0.014074, -0.001908, 0.013648, 0.035806, 0.052126, 0.044695, 0.020044, 0.003998, 0.007860, 0.019233, 0.020053, 0.000744, -0.032041, -0.057932, -0.061297, -0.042820, -0.015374, 0.003763, 0.005062, -0.005447, -0.016664, -0.025250, -0.032179, -0.035430, -0.034072, -0.032455, -0.036088, -0.046041, -0.055959, -0.052652, -0.023975, 0.024180, 0.063802, 0.069875, 0.044398, 0.014186, 0.007940, 0.026238, 0.039824, 0.028431, 0.005294, -0.005806, -0.002581, -0.003289, -0.019101, -0.038901, -0.045747, -0.038272, -0.028425, -0.022617, -0.014474, -0.003492, -0.006664, -0.035659, -0.075995, -0.101057, -0.101516, -0.094161, -0.101316, -0.126013, -0.144497, -0.120802, -0.033349, 0.106557, 0.252397, 0.342137, 0.338783, 0.258000, 0.151261, 0.065327, 0.018707, 0.004856, 0.010650, 0.026197, 0.039545, 0.039330, 0.021376, -0.010700, -0.046562, -0.077432, -0.094769, -0.082673, -0.038452, 0.010426, 0.029833, 0.008181, -0.037940, -0.074119, -0.066841, -0.013548, 0.037584, 0.027038, -0.040803, -0.098461, -0.102680, -0.076909, -0.062135, -0.065128, -0.066971, -0.053340, -0.018919, 0.031329, 0.075169, 0.090986, 0.080386, 0.058076, 0.033357, 0.010056, -0.008154, -0.015438, -0.008263, 0.008098, 0.023910, 0.033607, 0.039310, 0.043646, 0.038161, 0.012728, -0.020865, -0.034510, -0.019412, -0.001825, -0.014068, -0.057156, -0.100302, -0.107715, -0.062708, 0.017422, 0.088044, 0.112254, 0.089625, 0.050950, 0.030336, 0.037731, 0.058705, 0.073793, 0.067899, 0.038516, 0.003939, -0.014021, -0.013913, -0.005958, 0.002578, -0.002196, -0.035345, -0.085219, -0.115869, -0.109167, -0.085037, -0.066653, -0.052532, -0.032664, -0.006743, 0.013942, 0.018157, 0.010388, 0.002149, -0.001773, 0.000800, 0.009254, 0.018683, 0.023401, 0.020062, 0.012020, 0.005591, 0.001005, -0.007810, -0.023495, -0.039360, -0.047435, -0.047297, -0.043064, -0.037326, -0.033449, -0.037199, -0.044463, -0.036932, -0.002781, 0.048258, 0.088655, 0.089605, 0.051368, 0.007716, -0.014692, -0.022517, -0.030597, -0.032890, -0.018228, 0.005126, 0.025083, 0.049775, 0.094787, 0.151881, 0.185188, 0.164027, 0.099264, 0.042141, 0.033654, 0.059969, 0.071145, 0.034148, -0.036926, -0.095137, -0.107888, -0.085804, -0.055824, -0.027899, -0.008383, -0.012355, -0.034924, -0.040985, -0.005697, 0.048805, 0.073373, 0.053002, 0.025289, 0.024906, 0.039072, 0.033887, 0.001928, -0.031994, -0.044454, -0.040268, -0.037843, -0.039281, -0.033272, -0.019598, -0.011241, -0.013545, -0.018642, -0.020309, -0.020356, -0.023519, -0.029601, -0.028772, -0.013795, 0.005359, 0.011026, -0.002022, -0.024318, -0.043563, -0.051650, -0.047308, -0.038646, -0.040709, -0.062594, -0.090616, -0.092574, -0.051080, 0.012005, 0.053672, 0.047417, -0.001661, -0.066068, -0.111513, -0.119658, -0.101865, -0.075977, -0.033349, 0.049495, 0.163662, 0.252820, 0.260340, 0.187396, 0.089029, 0.012581, -0.036018, -0.064842, -0.077459, -0.088502, -0.112944, -0.134999, -0.118729, -0.055442, 0.015767, 0.049384, 0.044263, 0.031447, 0.023607, 0.008451, -0.014013, -0.025174, -0.017581, -0.000952, 0.017860, 0.041512, 0.076062, 0.128759, 0.187452, 0.197814, 0.119217, 0.009415, -0.023587, 0.035001, 0.081977, 0.036782, -0.047188, -0.061812, -0.001693, 0.038507, 0.007804, -0.047191, -0.061436, -0.025968, 0.009298, -0.007134, -0.057388, -0.060551, 0.025062, 0.137898, 0.179615, 0.125040, 0.043402, 0.011605, 0.036403, 0.075839, 0.096968, 0.086119, 0.039298, -0.022893, -0.053190, -0.024627, 0.029095, 0.047235, 0.008007, -0.060330, -0.116181, -0.132560, -0.111245, -0.084467, -0.089617, -0.135232, -0.192905, -0.223669, -0.216418, -0.196291, -0.187899, -0.188281, -0.182849, -0.162319, -0.117415, -0.036920, 0.070898, 0.167284, 0.220289, 0.247900, 0.295502, 0.363181, 0.384642, 0.296690, 0.119488, -0.046021, -0.113115, -0.087706, -0.032390, 0.012616, 0.040853, 0.050110, 0.040315, 0.022990, 0.007863, -0.010773, -0.045218, -0.100293, -0.170700, -0.248984, -0.328483, -0.395545, -0.435725, -0.455320, -0.472580, -0.477363, -0.428632, -0.313718, -0.186067, -0.099943, -0.015523, 0.175297, 0.505597, 0.846323, 1.000000, 0.873734, 0.536226, 0.145079, -0.139679, -0.222544, -0.119458, 0.061315, 0.202969, 0.245692, 0.193998, 0.109649, 0.083144, 0.159630, 0.291313, 0.374651, 0.342075, 0.231974, 0.145473, 0.118597, 0.086477, -0.006144, -0.120931, -0.182963, -0.171805, -0.129153, -0.108550, -0.134656, -0.193207, -0.249825, -0.292054, -0.344689, -0.415827, -0.455843, -0.416706, -0.327739, -0.258503, -0.217832, -0.150126, -0.033410, 0.083896, 0.165212, 0.245633, 0.351643, 0.402823, 0.298768, 0.086530, -0.073114, -0.091107, -0.019759, 0.026958, -0.025580, -0.155985, -0.272148, -0.296363, -0.210730, -0.038925, 0.167113, 0.318180, 0.323789, 0.182493, 0.012170, -0.042420, 0.067212, 0.248776, 0.334686, 0.215892, -0.067841, -0.368387, -0.550486, -0.567367, -0.445434, -0.247197, -0.053905, 0.064681, 0.093805, 0.089020, 0.131293, 0.250566, 0.399769, 0.489615, 0.442080, 0.259308, 0.051609, -0.051424, -0.025018, 0.042470, 0.062073, 0.028778, -0.016564, -0.056600, -0.095775, -0.127280, -0.145667, -0.181823, -0.264855, -0.338516, -0.290505, -0.105660, 0.065604, 0.069516, -0.036517, -0.034416, 0.160849, 0.373266, 0.418723, 0.349271, 0.304538, 0.273059, 0.165820, 0.007355, -0.095737, -0.110070, -0.088191, -0.070710, -0.057373, -0.048790, -0.056103, -0.070013, -0.067414, -0.061018, -0.095496, -0.177725, -0.252356, -0.267641, -0.234751, -0.194139, -0.155620, -0.112015, -0.086636, -0.111275, -0.150917, -0.112080, 0.036379, 0.198125, 0.259781, 0.225789, 0.171423, 0.120611, 0.062038, 0.027890, 0.060274, 0.122621, 0.113741, -0.017340, -0.195774, -0.294932, -0.275278, -0.190618, -0.076700, 0.087297, 0.302207, 0.496749, 0.578370, 0.501837, 0.293086, 0.049231, -0.108365, -0.129650, -0.076706, -0.046573, -0.069319, -0.106081, -0.124558, -0.133638, -0.149159, -0.163739, -0.157872, -0.120846, -0.054772, 0.027182, 0.102127, 0.149379, 0.158798, 0.121172, 0.032911, -0.068141, -0.110196, -0.075857, -0.035574, -0.047690, -0.081398, -0.075113, -0.027840, 0.001214, -0.027020, -0.083041, -0.114867, -0.112697, -0.095531, -0.060298, 0.009168, 0.097421, 0.164271, 0.185044, 0.155426, 0.078646, -0.024348, -0.106457, -0.124423, -0.084925, -0.035277, 0.006864, 0.067085, 0.135376, 0.154156, 0.117536, 0.089761, 0.096565, 0.093038, 0.060483, 0.045359, 0.071086, 0.081433, 0.025324, -0.052135, -0.071130, -0.034469, -0.018204, -0.061671, -0.122072, -0.142363, -0.126331, -0.127618, -0.174409, -0.229669, -0.241471, -0.205353, -0.152269, -0.110584, -0.100825, -0.128738, -0.172166, -0.197576, -0.181476, -0.110954, 0.009674, 0.153601, 0.286713, 0.370697, 0.366273, 0.275011, 0.162016, 0.101113, 0.109191, 0.151205, 0.192658, 0.226618, 0.256468, 0.280690, 0.293976, 0.283280, 0.232788, 0.145329, 0.048904, -0.025662, -0.068531, -0.090772, -0.109837, -0.137375, -0.172175, -0.203399, -0.225277, -0.245769, -0.265748, -0.253764, -0.181105, -0.085504, -0.050642, -0.102574, -0.166061, -0.158507, -0.088547, -0.020047, 0.021223, 0.059590, 0.109147, 0.144856, 0.139068, 0.094734, 0.032393, -0.026450, -0.063052, -0.075122, -0.080369, -0.099623, -0.138915, -0.173128, -0.152801, -0.055095, 0.081439, 0.195168, 0.247185, 0.213202, 0.086753, -0.070322, -0.141596, -0.080966, 0.025059, 0.073123, 0.074078, 0.111519, 0.191764, 0.208437, 0.090419, -0.075369, -0.134926, -0.051791, 0.065298, 0.113368, 0.102280, 0.088967, 0.075916, 0.028954, -0.050653, -0.133815, -0.211509, -0.279837, -0.307134, -0.267071, -0.190894, -0.139276, -0.112609, -0.043716, 0.090919, 0.220377, 0.284976, 0.317842, 0.365153, 0.394957, 0.342125, 0.196849, 0.014292, -0.133268, -0.203640, -0.202626, -0.159095, -0.096416, -0.032111, 0.014921, 0.023022, -0.012819, -0.055992, -0.048831, 0.034401, 0.157881, 0.240757, 0.220745, 0.121810, 0.035309, 0.010720, -0.006091, -0.088353, -0.206979, -0.255434, -0.195233, -0.101089, -0.041858, -0.001608, 0.045833, 0.064387, 0.016932, -0.052253, -0.062300, -0.001664, 0.057023, 0.043925, -0.035844, -0.120834, -0.159250, -0.148459, -0.126848, -0.137992, -0.190965, -0.243617, -0.234102, -0.142601, -0.024095, 0.036215, 0.016729, -0.015165, 0.006652, 0.072420, 0.141957, 0.215027, 0.307225, 0.384357, 0.382364, 0.303747, 0.232732, 0.214072, 0.184742, 0.082906, -0.045318, -0.110781, -0.093212, -0.032205, 0.030330, 0.039039, -0.063561, -0.240616, -0.351679, -0.307331, -0.174374, -0.080001, -0.068370, -0.090166, -0.083755, -0.039289, 0.001737, -0.001152, -0.051673, -0.113468, -0.114211, 0.003128, 0.188789, 0.288059, 0.192999, -0.031700, -0.218672, -0.256886, -0.155144, -0.017452, 0.016655, -0.120963, -0.346929, -0.485932, -0.425013, -0.201115, 0.053640, 0.243993, 0.405739, 0.633477, 0.869571, 0.886091, 0.593535, 0.225756, 0.070075, 0.126963, 0.183892, 0.135849, 0.063802, 0.044178, 0.045462, 0.017231, -0.030209, -0.064810, -0.086971, -0.114705, -0.156452, -0.209804, -0.254299, -0.256313, -0.209072, -0.150805, -0.124899, -0.132718, -0.137372, -0.108688, -0.056030, -0.017996, -0.014468, -0.017587, 0.004883, 0.026388, -0.019959, -0.148671, -0.287850, -0.358240, -0.349054, -0.292674, -0.199548, -0.071580, 0.040838, 0.074122, 0.044886, 0.039172, 0.104828, 0.210938, 0.291213, 0.271134, 0.118962, -0.069992, -0.135702, -0.047655, 0.068279, 0.115405, 0.120805, 0.132909, 0.143101, 0.129697, 0.080507, -0.028349, -0.182484, -0.290076, -0.284047, -0.209501, -0.132445, -0.036297, 0.110725, 0.251806, 0.287709, 0.205236, 0.106751, 0.100413, 0.186764, 0.262059, 0.216668, 0.043810, -0.136040, -0.184019, -0.083746, 0.049172, 0.099158, 0.062035, 0.008295, -0.025053, -0.050248, -0.056147, 0.011432, 0.166093, 0.311825, 0.324083, 0.195921, 0.037634, -0.062112, -0.109405, -0.140981, -0.159192, -0.157972, -0.154324, -0.158821, -0.156811, -0.139641, -0.123968, -0.123056, -0.114808, -0.069381, -0.009324, -0.002287, -0.080654, -0.193031, -0.250739, -0.222129, -0.155417, -0.093767, -0.021311, 0.073152, 0.135082, 0.105313, 0.024824, 0.009615, 0.097718, 0.188204, 0.176261, 0.079264, -0.018966, -0.078579, -0.111995, -0.128503, -0.101959, 0.012484, 0.213810, 0.408343, 0.485297, 0.445431, 0.368610, 0.265469, 0.090604, -0.113024, -0.229175, -0.229945, -0.204328, -0.217032, -0.240945, -0.250489, -0.275396, -0.308644, -0.256651, -0.073029, 0.107912, 0.083976, -0.149282, -0.326270, -0.171185, 0.265284, 0.596865, 0.514230, 0.142454, -0.140778, -0.158571, -0.045921, 0.018742, 0.013713, 0.008060, 0.041935, 0.112292, 0.183813, 0.199851, 0.153077, 0.126469, 0.193775, 0.295129, 0.284544, 0.117495, -0.078482, -0.163962, -0.150746, -0.143606, -0.181626, -0.212967, -0.184133, -0.084675, 0.057820, 0.164938, 0.148001, 0.025779, -0.078238, -0.104690, -0.117883, -0.163930, -0.194398, -0.169195, -0.126760, -0.111886, -0.109014, -0.082162, -0.036482, -0.008721, -0.013022, -0.018034, 0.013475, 0.064948, 0.078967, 0.047117, 0.028881, 0.056383, 0.092180, 0.096795, 0.073314, 0.039642, 0.004074, -0.023592, -0.030844, -0.021261, -0.010115, -0.003724, -0.000435, -0.000667, -0.005126, -0.010044, -0.009791, -0.005553, -0.004159, -0.005397, -0.003145, 0.000479, -0.005053, -0.022220, -0.037526, -0.037082, -0.024709, -0.013869, -0.005588, 0.010379, 0.031579, 0.034765, 0.000823, -0.057103, -0.104532, -0.130096, -0.163169, -0.226959, -0.287395, -0.278035, -0.173066, -0.028037, 0.060113, 0.058055, 0.040880, 0.091474, 0.191382, 0.257718, 0.242841, 0.153033, 0.020694, -0.084078, -0.057744, 0.133062, 0.361620, 0.444467, 0.339024, 0.161267, 0.023360, -0.046027, -0.040445, 0.029186, 0.083397, 0.065704, 0.065865, 0.178137, 0.280996, 0.179953, -0.075560, -0.257603, -0.293047, -0.301307, -0.345065, -0.354101, -0.277045, -0.143527, 0.009277, 0.153374, 0.239728, 0.234437, 0.167357, 0.101216, 0.067176, 0.048919, 0.019586, -0.000559, 0.054375, 0.181814, 0.250331, 0.156916, -0.009983, -0.082994, -0.040888, -0.001643, -0.031744, -0.081721, -0.093447, -0.073487, -0.056315, -0.054886, -0.063640, -0.076650, -0.088691, -0.097156, -0.101254, -0.096460, -0.083041, -0.071932, -0.071298, -0.077006, -0.081930, -0.085522, -0.089399, -0.090046, -0.079810, -0.056068, -0.029172, -0.014377, -0.016520, -0.027999, -0.036761, -0.034689, -0.022117, -0.002037, 0.022772, 0.037317, 0.024377, -0.002825, -0.010356, 0.011696, 0.034930, 0.028281, 0.001725, -0.009794, 0.001402, 0.017237, 0.020097, -0.014092, -0.098897, -0.187261, -0.189948, -0.074657, 0.088138, 0.201773, 0.234513, 0.216438, 0.185574, 0.164215, 0.155620, 0.141396, 0.102395, 0.046406, 0.000024, -0.021438, -0.026173, -0.033581, -0.060501, -0.110775, -0.162463, -0.187390, -0.192593, -0.210650, -0.249749, -0.277204, -0.247432, -0.132301, 0.060692, 0.271054, 0.401721, 0.394769, 0.293574, 0.214066, 0.248887, 0.377446, 0.460284, 0.365247, 0.116995, -0.124764, -0.239202, -0.243920, -0.221077, -0.208058, -0.190535, -0.158824, -0.128824, -0.115346, -0.103385, -0.054157, 0.052958, 0.183848, 0.267127, 0.256868, 0.172399, 0.071148, -0.013342, -0.086377, -0.142848, -0.151708, -0.107721, -0.049489, -0.010465, 0.006658, 0.005926, -0.006108, -0.004486, 0.025979, 0.047917, 0.014392, -0.051950, -0.088746, -0.080457, -0.055971, -0.031329, -0.005250, 0.009830, -0.003427, -0.030709, -0.030324, 0.014871, 0.065604, 0.067391, 0.020638, -0.019924, -0.022766, -0.014947, -0.024974, -0.039798, -0.037937, -0.025985, -0.024892, -0.038369, -0.049466, -0.044916, -0.028152, -0.010271, -0.001223, -0.005932, -0.021103, -0.034954, -0.035474, -0.022596, -0.008104, -0.003915, -0.011782, -0.023146, -0.029172, -0.025677, -0.007211, 0.025588, 0.052373, 0.051782, 0.030483, 0.017860, 0.034589, 0.067109, 0.076139, 0.040459, -0.016073, -0.051321, -0.049622, -0.030815, -0.020991, -0.029104, -0.044916, -0.046368, -0.018745, 0.028778, 0.067065, 0.069981, 0.041614, 0.014280, 0.011120, 0.021247, 0.019260, -0.000808, -0.019839, -0.019956, -0.007355, -0.002366, -0.016449, -0.045871, -0.077147, -0.093852, -0.087712, -0.069099, -0.060339, -0.075281, -0.109646, -0.143380, -0.149650, -0.123006, -0.093785, -0.078864, -0.030092, 0.121025, 0.364601, 0.588338, 0.667895, 0.577306, 0.395022, 0.203281, 0.018257, -0.166188, -0.314859, -0.375162, -0.348410, -0.301363, -0.296422, -0.319518, -0.289817, -0.159450, 0.002631, 0.084378, 0.090472, 0.126551, 0.218408, 0.276072, 0.248367, 0.187358, 0.147924, 0.138333, 0.165303, 0.216368, 0.229448, 0.170826, 0.092629, 0.059213, 0.061194, 0.038963, -0.033066, -0.122474, -0.184127, -0.196553, -0.161681, -0.098238, -0.041479, -0.025024, -0.048640, -0.076636, -0.078829, -0.060962, -0.046606, -0.046144, -0.052258, -0.055210, -0.052990, -0.049707, -0.052182, -0.066036, -0.090822, -0.114305, -0.114488, -0.082938, -0.040177, -0.012546, -0.005062, -0.005970, -0.007581, -0.010764, -0.012478, -0.008010, -0.001946, -0.000382, -0.003148, -0.008019, -0.012469, -0.014809, -0.013992, -0.007972, 0.001872, 0.009453, 0.012640, 0.014941, 0.017161, 0.016740, 0.013328, 0.010141, 0.010635, 0.015618, 0.022114, 0.022619, 0.013816, 0.006243, 0.009797, 0.016106, 0.014421, 0.011370, 0.018751, 0.032481, 0.031097, -0.003577, -0.064731, -0.121951, -0.135320, -0.075289, 0.048184, 0.176602, 0.235560, 0.191523, 0.084167, -0.008789, -0.041770, -0.025142, 0.012311, 0.055536, 0.096080, 0.118812, 0.108988, 0.069137, 0.020206, -0.016905, -0.036729, -0.046570, -0.053337, -0.059022, -0.068576, -0.092582, -0.133021, -0.168195, -0.168189, -0.126819, -0.057114, 0.038895, 0.154324, 0.233058, 0.212517, 0.121977, 0.058234, 0.058764, 0.072723, 0.054451, 0.018772, -0.003122, -0.011549, -0.023422, -0.038281, -0.044375, -0.040265, -0.030242, -0.019054, -0.014862, -0.020177, -0.028757, -0.034548, -0.035265, -0.031891, -0.024856, -0.009718, 0.016740, 0.044328, 0.052217, 0.033407, 0.006731, -0.008275, -0.014880, -0.023519, -0.029648, -0.024574, -0.014421, -0.012851, -0.021458, -0.029233, -0.030100, -0.027837, -0.026235, -0.025600, -0.023492, -0.015988, -0.003319, 0.005823, 0.002075, -0.011108, -0.021147, -0.020870, -0.012887, -0.002531, 0.011214, 0.029774, 0.044954, 0.048173, 0.041065, 0.032408, 0.027690, 0.021405, 0.009768, 0.000426, -0.010350, -0.050674, -0.140367, -0.247559, -0.304797, -0.290628, -0.256792, -0.250160, -0.254073, -0.230069, -0.180194, -0.131884, -0.080436, 0.016188, 0.180435, 0.361776, 0.469050, 0.470761, 0.417200, 0.357805, 0.299185, 0.241636, 0.196361, 0.160782, 0.115931, 0.059542, 0.016655, 0.004256, 0.008604, 0.005994, -0.015485, -0.042008, -0.035888, 0.014254, 0.060098, 0.046732, -0.016984, -0.070248, -0.081871, -0.083979, -0.105069, -0.117133, -0.082347, -0.012390, 0.046241, 0.059989, 0.024269, -0.042111, -0.100551, -0.116625, -0.094473, -0.066056, -0.050606, -0.044760, -0.039704, -0.032925, -0.026241, -0.021976, -0.023886, -0.031335, -0.035924, -0.033058, -0.028634, -0.029989, -0.035544, -0.036950, -0.031270, -0.023125, -0.015720, -0.011961, -0.016370, -0.025568, -0.031341, -0.031341, -0.024127, -0.009430, 0.004324, 0.011194, 0.014080, 0.011743, 0.002099, -0.006923, -0.005706, 0.006617, 0.021032, 0.027855, 0.028704, 0.031614, 0.036509, 0.036964, 0.033760, 0.031861, 0.030051, 0.025873, 0.019715, 0.010926, 0.000520, -0.006573, -0.007796, -0.004788, 0.000256, 0.004359, 0.004671, 0.002992, 0.005609, 0.015000, 0.022511, 0.016802, 0.001952, -0.004962, 0.000667, 0.007522, 0.011023, 0.014110, 0.015770, 0.016070, 0.016961, 0.018004, 0.020700, 0.025603, 0.024659, 0.008660, -0.017449, -0.036115, -0.034633, -0.016056, 0.002981, 0.007522, -0.002913, -0.015900, -0.014333, 0.003007, 0.016329, 0.013525, 0.003069, -0.003034, -0.003798, -0.006226, -0.013025, -0.019251, -0.018307, -0.008498, 0.003395, 0.006826, -0.000800, -0.010359, -0.013366, -0.009900, -0.002719, 0.005853, 0.011441, 0.009127, 0.000529, -0.006687, -0.010209, -0.013998, -0.016887, -0.014630, -0.010835, -0.012381, -0.020688, -0.029968, -0.027096, -0.001914, 0.039266, 0.073684, 0.077144, 0.048543, 0.015609, 0.003768, 0.007419, 0.006352, -0.002460, -0.008627, -0.007681, -0.002816, -0.000159, -0.001405, 0.000412, 0.007622, 0.010597, 0.004024, -0.004765, -0.011061, -0.017690, -0.021091, -0.013995, -0.000797, 0.005923, 0.001190, -0.007825, -0.013292, -0.013660, -0.009168, -0.003542, -0.003663, -0.010770, -0.018977, -0.021153, -0.015183, -0.004662, 0.006870, 0.016943, 0.019871, 0.012646, 0.004203, 0.004156, 0.008827, 0.009192, 0.003398, -0.000647, 0.003045, 0.006784, 0.002546, -0.006476, -0.015050, -0.017681, -0.010638, -0.001546, 0.000438, -0.001843, -0.001044, 0.003407, 0.005323, 0.001032, -0.005820, -0.009030, -0.004700, 0.004233, 0.009254, 0.005870, -0.000556, -0.000015, 0.008213, 0.012399, 0.004762, -0.007737, -0.013207, -0.010944, -0.009530, -0.010306, -0.008892, -0.005900, -0.002660, -0.000467, -0.003336, -0.009151, -0.011467, -0.009938, -0.004774, 0.004154, 0.011570, 0.014010, 0.012055, 0.006896, 0.002446, 0.002522, 0.008842, 0.019695, 0.023907, 0.013607, 0.001361, 0.001570, 0.008475, 0.009592, 0.003231, -0.004777, -0.008995, -0.008013, -0.005344, -0.005262, -0.008771, -0.013804, -0.016799, -0.015523, -0.008457, 0.004154, 0.015300, 0.016964, 0.009700, 0.001049, -0.002140, 0.002305, 0.010617, 0.016073, 0.019027, 0.024057, 0.027961, 0.025835, 0.018004, 0.006532, -0.003754, -0.009503, -0.012431, -0.012287, -0.008292, -0.004533, -0.003880, -0.003522, -0.001690, -0.000385, -0.001170, -0.004365, -0.008757, -0.011776, -0.012008, -0.011244, -0.010529, -0.007737, -0.005265, -0.005947, -0.004980, -0.000223, 0.004395, 0.006770, 0.005385, -0.001531, -0.009330, -0.009289, -0.003016, -0.000191, -0.000529, 0.000658, 0.000794, 0.000126, 0.003530, 0.008792, 0.008081, 0.000373, -0.006711, -0.006972, -0.001129, 0.004377, 0.004136, 0.001573, 0.002416, 0.003727, -0.000241, -0.006302, -0.006302, -0.000320, 0.003125, 0.000656, -0.000802, 0.004286, 0.012214, 0.016009, 0.011640, 0.001984, -0.004165, -0.003272, -0.000726, 0.000123, 0.002302, 0.005003, 0.002784, -0.002440, -0.005964, -0.010665, -0.018889, -0.024274, -0.020747, -0.014715, -0.015709, -0.020879, -0.021123, -0.012996, -0.002396, 0.002713, 0.002137, 0.000109, -0.000003, 0.003019, 0.006282, 0.006146, 0.003007, -0.001549, -0.005171, -0.003075, 0.003577, 0.007913, 0.007822, 0.004691, 0.000794, -0.000029, 0.002014, 0.002166, 0.001370, 0.004239, 0.004333, -0.003413, -0.006364, 0.003563, 0.015747, 0.016914, 0.006902, -0.001693, -0.001188, 0.003763, 0.005232, 0.001132, -0.000470, 0.005779, 0.011987, 0.011185, 0.008234, 0.009724, 0.014536, 0.017734, 0.014439, 0.005218, -0.000720, 0.000394, 0.002072, 0.002895, 0.005832, 0.007901, 0.006717, 0.004130, 0.000908, -0.001987, -0.005365, -0.013137, -0.020559, -0.015800, -0.000153, 0.011279, 0.007893, -0.005406, -0.012519, -0.007649, -0.003569, -0.008704, -0.016884, -0.023351, -0.029172, -0.032558, -0.031206, -0.026503, -0.020124, -0.013201, -0.007164, -0.002751, 0.000170, 0.001105, 0.001296, 0.007945, 0.023866, 0.037199, 0.039134, 0.036805, 0.036329, 0.034010, 0.026973, 0.018134, 0.011814, 0.009242, 0.007649, 0.004262, 0.000779, 0.000661, 0.003451, 0.004659, 0.000694, -0.005388, -0.006049, -0.001314, 0.001343, 0.000755, 0.001626, 0.005858, 0.011238, 0.013040, 0.009877, 0.005882, 0.003871, 0.001893, -0.003448, -0.012308, -0.019389, -0.018469, -0.012513, -0.010879, -0.013639, -0.014251, -0.013157, -0.014971, -0.019204, -0.020118, -0.016323, -0.013434, -0.014309, -0.015835, -0.012681, -0.006220, -0.003598, -0.001299, 0.006864, 0.015462, 0.019401, 0.019157, 0.013883, 0.005091, 0.000029, 0.001202, 0.002399, -0.000356, -0.006149, -0.012822, -0.015153, -0.010279, -0.003474, -0.001114, -0.004109, -0.007249, -0.004203, 0.001631, 0.001161, -0.002913, -0.001217, 0.004077, 0.005535, 0.005109, 0.005861, 0.003451, -0.002813, -0.007634, -0.008272, -0.005115, -0.000270, 0.004203, 0.007719, 0.008557, 0.003821, -0.005576, -0.012122, -0.010394, -0.005282, -0.002790, -0.002939, -0.006546, -0.012655, -0.012978, -0.005174, 0.002390, 0.007084, 0.013257, 0.019404, 0.019386, 0.012778, 0.006708, 0.006235, 0.008416, 0.009039, 0.008222, 0.005773, 0.001211, -0.000173, 0.005473, 0.012925, 0.014780, 0.007361, -0.005359, -0.012543, -0.008624, 0.001561, 0.009836, 0.011220, 0.007216, 0.004327, 0.006220, 0.008663, 0.005673, -0.001940, -0.006952, -0.003248, 0.005176, 0.006120, -0.002310, -0.006958, -0.001205, 0.005638, 0.005079, 0.002066, 0.003198, 0.003771, -0.000729, -0.007249, -0.011884, -0.010817, -0.006079, -0.004912, -0.007502, -0.010203, -0.011952, -0.011499, -0.008754, -0.006729, -0.007513, -0.008516, -0.006473, -0.000935, 0.006373, 0.010967, 0.009921, 0.005873, 0.003028, 0.001658, 0.000332, 0.000517, 0.000952, -0.001002, -0.001993, 0.000082, 0.003086, 0.005691, 0.006414, 0.004806, 0.001599, -0.004788, -0.013701, -0.019071, -0.017422, -0.010426, -0.001499, 0.005250, 0.007143, 0.003863, -0.000047, 0.001149, 0.004944, 0.005541, 0.002490, -0.000253, 0.000929, 0.004295, 0.005576, 0.004874, 0.005732, 0.009130, 0.010585, 0.006117, -0.001032, -0.005776, -0.007546, -0.007807, -0.006878, -0.002046, 0.006817, 0.010682, 0.004309, -0.003042, -0.002449, 0.001969, 0.004045, 0.004753, 0.004915, 0.002672, -0.000656, -0.003574, -0.009377, -0.016141, -0.014739, -0.006523, -0.002728, -0.006335, -0.011570, -0.013248, -0.009180, -0.001799, 0.001296, -0.005226, -0.014374, -0.013539, -0.002987, 0.007610, 0.014680, 0.015950, 0.007737, -0.002360, 0.000453, 0.016641, 0.027761, 0.023904, 0.020341, 0.028610, 0.036926, 0.032966, 0.021191, 0.012199, 0.010714, 0.016367, 0.024230, 0.026226, 0.020335, 0.012828, 0.011764, 0.022846, 0.044686, 0.067456, 0.080272, 0.074701, 0.044880, -0.005144, -0.059072, -0.100922, -0.127580, -0.146763, -0.161434, -0.162387, -0.145758, -0.125449, -0.116610, -0.118626, -0.119332, -0.112095, -0.104658, -0.104611, -0.100743, -0.069599, -0.000112, 0.095234, 0.187181, 0.238711, 0.225827, 0.165259, 0.104934, 0.079493, 0.087212, 0.110425, 0.142442, 0.175620, 0.182290, 0.147651, 0.099534, 0.072788, 0.067253, 0.054619, 0.013675, -0.044974, -0.090637, -0.105155, -0.096319, -0.086768, -0.091318, -0.102650, -0.107718, -0.106225, -0.101724, -0.093350, -0.083141, -0.076374, -0.070386, -0.050653, -0.006052, 0.050842, 0.090107, 0.097268, 0.088538, 0.082950, 0.074513, 0.047852, 0.003216, -0.043978, -0.073370, -0.070316, -0.035227, 0.016458, 0.062473, 0.085322, 0.074860, 0.026749, -0.044968, -0.106813, -0.134041, -0.130593, -0.114108, -0.092580, -0.064916, -0.033989, -0.008924, 0.004392, 0.012422, 0.034618, 0.087047, 0.157066, 0.203596, 0.185485, 0.097600, -0.015350, -0.102021, -0.147716, -0.155673, -0.128950, -0.084034, -0.045342, -0.024283, -0.015529, -0.007860, 0.004350, 0.018431, 0.028155, 0.034936, 0.056438, 0.105637, 0.159812, 0.170438, 0.110325, 0.009001, -0.069375, -0.090072, -0.077185, -0.074860, -0.093723, -0.105302, -0.075998, 0.006102, 0.120076, 0.212970, 0.236486, 0.199516, 0.162898, 0.167322, 0.180694, 0.142639, 0.045089, -0.073026, -0.179512, -0.254934, -0.283212, -0.262715, -0.211485, -0.155261, -0.107550, -0.067306, -0.038360, -0.031597, -0.042626, -0.047252, -0.024948, 0.020862, 0.061544, 0.064910, 0.028548, -0.007725, 0.008272, 0.081295, 0.147389, 0.140179, 0.068432, 0.001967, -0.013633, -0.002951, -0.011717, -0.041165, -0.053925, -0.027199, 0.014071, 0.023384, -0.011602, -0.063208, -0.111486, -0.167005, -0.228508, -0.239910, -0.130540, 0.091789, 0.314820, 0.416947, 0.376188, 0.256410, 0.123565, 0.024921, 0.003042, 0.063711, 0.145517, 0.168422, 0.109852, 0.012584, -0.065654, -0.104817, -0.132845, -0.178772, -0.228076, -0.233896, -0.166978, -0.044545, 0.098494, 0.232482, 0.305967, 0.264458, 0.131775, 0.002763, -0.063628, -0.084220, -0.088823, -0.076789, -0.052899, -0.063861, -0.150376, -0.275790, -0.353607, -0.346532, -0.297507, -0.255002, -0.197578, -0.059043, 0.177728, 0.436195, 0.598861, 0.597956, 0.463785, 0.288859, 0.136831, 0.006079, -0.104620, -0.147833, -0.090863, 0.005617, 0.032252, -0.045459, -0.162219, -0.253082, -0.314715, -0.358566, -0.372552, -0.354748, -0.331434, -0.313747, -0.274343, -0.192784, -0.094090, -0.015797, 0.038657, 0.090907, 0.159821, 0.253258, 0.350115, 0.397291, 0.360606, 0.264790, 0.171096, 0.135273, 0.176164, 0.243144, 0.228564, 0.076674, -0.127098, -0.237318, -0.206241, -0.104455, -0.014609, 0.027743, 0.015241, -0.043222, -0.112295, -0.140523, -0.100590, -0.015197, 0.062444, 0.096272, 0.096036, 0.089281, 0.082632, 0.070016, 0.053799, 0.038878, 0.018995, -0.011784, -0.029045, 0.008019, 0.088843, 0.141796, 0.119867, 0.051988, -0.006417, -0.033537, -0.036282, -0.019459, 0.007995, 0.019301, -0.005000, -0.054607, -0.105378, -0.139788, -0.148771, -0.130390, -0.091227, -0.037740, 0.029086, 0.093417, 0.118291, 0.081236, -0.003651, -0.098700, -0.162860, -0.174086, -0.140761, -0.093164, -0.059634, -0.038751, -0.013316, 0.008830, 0.005844, -0.013969, -0.015853, 0.011593, 0.040442, 0.045909, 0.038246, 0.045204, 0.073667, 0.100875, 0.107215, 0.086515, 0.028360, -0.060233, -0.129673, -0.131775, -0.077227, -0.019404, 0.010482, 0.030259, 0.061971, 0.081483, 0.046080, -0.035283, -0.093088, -0.066259, 0.037067, 0.158557, 0.247118, 0.278250, 0.239425, 0.130764, -0.005841, -0.088003, -0.073473, -0.022276, -0.021673, -0.071874, -0.099881, -0.070686, -0.036035, -0.057917, -0.122959, -0.166602, -0.153060, -0.098467, -0.032837, 0.030824, 0.088264, 0.124585, 0.120399, 0.073649, 0.004712, -0.056312, -0.091571, -0.108879, -0.123735, -0.138159, -0.144703, -0.133677, -0.097089, -0.040697, 0.014198, 0.061165, 0.132480, 0.252750, 0.373846, 0.404252, 0.308157, 0.147084, 0.012843, -0.060762, -0.095978, -0.109199, -0.098514, -0.076836, -0.067658, -0.074237, -0.085880, -0.096780, -0.095545, -0.059143, 0.013060, 0.072223, 0.066233, 0.005271, -0.051491, -0.063523, -0.040909, -0.014765, 0.001196, 0.009018, 0.011329, 0.014430, 0.024271, 0.031917, 0.021929, -0.003930, -0.022017, -0.011685, 0.014906, 0.021326, -0.010682, -0.059281, -0.090492, -0.099958, -0.105105, -0.106501, -0.091224, -0.060316, -0.021855, 0.024518, 0.074296, 0.106251, 0.100966, 0.070380, 0.054110, 0.073320, 0.105181, 0.119835, 0.116401, 0.100675, 0.063722, 0.012599, -0.019556, -0.018927, -0.009251, -0.016438, -0.039810, -0.062079, -0.073632, -0.074825, -0.067958, -0.063617, -0.073432, -0.085457, -0.071286, -0.017320, 0.066550, 0.149121, 0.178695, 0.124364, 0.028922, -0.030633, -0.040656, -0.054607, -0.097444, -0.123418, -0.083876, 0.001473, 0.062276, 0.058182, 0.023454, 0.019662, 0.057017, 0.085786, 0.067244, 0.025615, 0.011393, 0.034319, 0.055568, 0.040362, 0.002428, -0.013140, 0.011585, 0.044495, 0.039654, -0.022787, -0.122827, -0.211632, -0.244596, -0.214475, -0.152801, -0.089525, -0.025127, 0.044022, 0.102098, 0.129150, 0.120740, 0.088438, 0.043490, -0.013442, -0.072597, -0.106119, -0.100648, -0.074540, -0.050092, -0.023883, 0.023234, 0.080222, 0.092729, 0.034845, -0.023431, 0.016058, 0.143336, 0.234022, 0.198160, 0.088012, 0.018995, 0.025115, 0.050462, 0.051191, 0.041594, 0.042023, 0.035644, 0.001235, -0.046835, -0.075874, -0.072209, -0.050239, -0.031479, -0.026799, -0.038225, -0.054610, -0.054360, -0.034571, -0.022628, -0.044128, -0.088626, -0.122815, -0.128336, -0.108300, -0.067015, -0.002951, 0.069825, 0.110898, 0.091363, 0.033848, -0.009886, -0.019130, -0.017228, -0.021676, -0.016355, 0.013898, 0.055592, 0.085969, 0.094567, 0.082194, 0.057400, 0.033549, 0.018298, 0.011091, 0.013413, 0.028804, 0.053437, 0.073743, 0.074413, 0.052229, 0.017766, -0.016785, -0.044095, -0.060465, -0.065945, -0.065172, -0.061371, -0.050165, -0.027746, -0.003128, 0.004736, -0.013789, -0.043425, -0.054907, -0.036335, -0.015147, -0.031026, -0.078294, -0.109746, -0.101986, -0.076306, -0.053096, -0.027331, 0.003022, 0.024204, 0.032140, 0.043602, 0.067426, 0.079078, 0.052073, 0.002987, -0.027211, -0.024321, -0.006326, 0.007143, 0.007008, -0.005682, -0.018816, -0.020468, -0.008627, 0.014133, 0.039354, 0.046324, 0.022340, -0.017543, -0.048411, -0.058449, -0.052179, -0.042458, -0.038396, -0.039871, -0.042576, -0.043822, -0.044239, -0.048264, -0.058731, -0.071115, -0.082571, -0.098635, -0.122171, -0.145270, -0.154553, -0.140487, -0.106066, -0.073293, -0.073761, -0.113121, -0.153739, -0.153971, -0.109332, -0.044301, 0.018348, 0.066159, 0.080248, 0.042752, -0.023193, -0.061062, -0.048120, -0.016576, -0.000259, 0.001323, 0.001135, -0.002090, -0.016053, -0.039395, -0.067032, -0.091433, -0.099846, -0.091260, -0.077479, 